INDEX_b'0.40102553367614746'___FLEX_[]___EMG_[b'[7330.902,12659.536,-24424.533,-23053.834,-26044.609,-26308.516,-23035.215,7048.332][7353.925,12659.134,-24428.578,-23058.842,-26041.055,-26295.127,-23028.152,7036.374][7390.224,12708.062,-24380.969,-22999.430,-26010.299,-26276.465,-23005.309,7131.279][7319.369,12692.862,-24387.518,-22998.871,-26017.363,-26285.449,-23014.518,7099.115][7307.813,12681.508,-24399.744,-23027.393,-26019.934,-26281.158,-23016.865,7047.750][7307.411,12660.117,-24420.486,-23052.939,-26033.455,-26258.852,-23027.840,7030.316][7340.961,12677.797,-24408.551,-23022.564,-26019.486,-26260.080,-23018.430,7097.729][7372.633,12702.295,-24388.658,-22997.889,-26020.291,-26317.479,-23012.596,7143.483][7367.425,12710.453,-24374.219,-22999.699,-26001.135,-26276.420,-23000.414,7104.189][7335.797,12691.565,-24386.334,-23019.523,-26011.172,-26291.797,-23010.092,7081.614][7372.991,12691.477,-24405.221,-23027.928,-26023.240,-26292.109,-23015.301,7098.847][7370.756,12677.887,-24420.107,-23027.684,-26041.324,-26309.098,-23031.617,7109.777][7318.922,12678.579,-24406.941,-23025.672,-26025.855,-26294.277,-23019.480,7063.889][7310.674,12681.061,-24399.141,-23032.734,-26016.871,-26288.869,-23017.223,7025.533][7350.729,12691.409,-24394.559,-23017.580,-26010.277,-26276.307,-23007.477,7119.366][7360.452,12692.035,-24398.648,-23006.449,-26020.939,-26285.383,-23022.297,7124.462][7354.372,12685.017,-24403.879,-23017.982,-26021.789,-26293.787,-23015.256,7106.692][7336.133,12675.584,-24403.791,-23032.645,-26017.408,-26305.945,-23018.004,7070.617][7358.730,12669.236,-24415.838,-23043.754,-26037.479,-26303.510,-23038.143,7048.555][7347.532,12682.625,-24408.932,-23018.764,-26026.615,-26278.207,-23017.646,7097.550][7344.537,12688.683,-24400.035,-23013.848,-26015.730,-26281.738,-23011.164,7117.309][7329.315,12687.163,-24397.486,-23028.041,-26010.746,-26275.414,-23007.500,7063.218][7351.220,12688.213,-24398.963,-23026.543,-26010.455,-26273.781,-23005.846,7083.066][7375.517,12694.807,-24396.727,-23009.713,-26023.844,-26298.459,-23022.297,7113.577][7347.688,12685.688,-24404.371,-23012.596,-26023.600,-26293.072,-23019.346,7109.218][7329.338,12676.210,-24407.568,-23032.756,-26019.463,-26285.807,-23013.445,7081.413][7322.454,12673.461,-24410.920,-23040.289,-26024.404,-26290.344,-23021.402,7055.574][7338.256,12683.407,-24407.076,-23021.334,-26027.197,-26290.770,-23027.906,7068.314][7373.795,12694.226,-24399.566,-23009.064,-26019.979,-26264.215,-23019.033,7129.581][7390.380,12692.482,-24397.756,-23022.832,-26012.154,-26271.234,-23015.055,7119.992][7344.649,12675.696,-24411.502,-23044.895,-26031.891,-26314.730,-23025.672,7070.371][7350.505,12675.428,-24413.201,-23026.520,-26024.918,-26293.787,-23016.686,7107.899][7366.084,12685.531,-24408.662,-23015.523,-26028.873,-26296.648,-23022.541,7112.235][7310.003,12679.742,-24404.863,-23025.850,-26024.270,-26295.352,-23028.756,7026.137][7315.904,12665.012,-24419.213,-23048.492,-26027.578,-26291.104,-23021.000,7072.807][7348.314,12690.516,-24400.951,-23022.498,-26022.123,-26289.451,-23019.793,7087.022][7336.200,12691.275,-24402.516,-23011.434,-26033.232,-26310.416,-23041.316,7066.996][7340.313,12693.197,-24398.426,-23013.088,-26007.752,-26269.826,-23002.314,7098.310][7342.212,12692.013,-24396.348,-23026.453,-26005.449,-26270.094,-23000.033,7076.875][7334.971,12674.467,-24416.598,-23037.295,-26021.789,-26282.275,-23018.898,7086.531][7348.806,12677.328,-24421.648,-23028.488,-26040.541,-26311.244,-23039.686,7083.938][7370.197,12699.411,-24400.975,-23017.178,-26022.660,-26282.230,-23013.646,7085.793][7371.449,12680.949,-24414.006,-23039.328,-26015.910,-26254.023,-22999.520,7125.356][7342.079,12677.149,-24417.402,-23040.959,-26027.242,-26291.998,-23017.557,7089.079][7345.632,12703.122,-24394.447,-23006.471,-26023.688,-26308.203,-23022.855,7093.706][7346.258,12682.357,-24411.367,-23017.469,-26020.670,-26290.902,-23021.670,7084.519][7347.868,12686.425,-24401.332,-23024.709,-26010.770,-26270.965,-23010.047,7069.477][7327.438,12685.554,-24404.908,-23028.264,-26013.340,-26275.525,-23009.533,7080.451][7322.789,12677.417,-24413.982,-23021.850,-26033.881,-26301.654,', b'-23027.348,7096.634][7319.369,12663.291,-24427.662,-23029.627,-26038.754,-26285.449,-23030.275,7093.684][7373.125,12686.402,-24409.736,-23031.326,-26018.033,-26272.709,-23007.410,7100.166][7382.356,12695.187,-24403.188,-23032.266,-26016.691,-26292.670,-23012.283,7092.834][7339.776,12677.351,-24414.385,-23025.201,-26032.449,-26302.816,-23028.086,7085.324][7328.958,12679.541,-24414.541,-23018.115,-26034.797,-26303.465,-23031.617,7076.629][7339.508,12689.107,-24399.924,-23022.363,-26020.871,-26291.529,-23019.568,7059.620][7314.340,12660.273,-24424.332,-23050.303,-26034.059,-26311.488,-23032.510,7040.039][7323.504,12646.862,-24442.436,-23051.645,-26047.537,-26308.584,-23034.344,7082.418][7339.910,12658.173,-24434.189,-23035.729,-26051.986,-26304.561,-23040.646,7095.650][7295.900,12659.826,-24422.990,-23036.311,-26032.160,-26290.031,-23031.863,7035.077][7327.438,12686.201,-24405.131,-23035.215,-26021.789,-26284.779,-23019.211,7052.981][7349.768,12693.913,-24397.777,-23019.502,-26025.744,-26292.848,-23018.361,7099.942][7336.423,12676.612,-24416.799,-23021.871,-26042.553,-26311.332,-23040.109,7095.673][7369.437,12695.053,-24399.566,-23013.602,-26019.508,-26274.139,-23012.260,7102.982][7356.250,12692.259,-24393.061,-23022.967,-26011.707,-26279.771,-23007.902,7081.211][7341.564,12680.837,-24408.506,-23031.438,-26027.621,-26285.025,-23029.158,7051.438][7332.065,12673.841,-24421.314,-23025.514,-26037.926,-26291.104,-23030.254,7084.072][7329.875,12672.165,-24418.609,-23028.107,-26036.271,-26305.521,-23023.838,7095.650][7370.354,12677.663,-24411.793,-23039.305,-26022.594,-26269.959,-23005.689,7110.850][7380.009,12661.860,-24427.930,-23047.709,-26022.705,-26254.738,-23013.848,7112.079][7342.391,12678.780,-24411.145,-23018.742,-26028.762,-26302.279,-23035.082,7075.243][7345.923,12693.086,-24396.123,-23007.119,-26025.654,-26310.037,-23025.381,7089.973][7333.585,12677.909,-24406.406,-23033.314,-26024.693,-26298.547,-23019.658,7056.959][7331.394,12675.808,-24409.266,-23039.596,-26028.650,-26299.799,-23026.588,7037.804][7358.484,12682.603,-24408.596,-23023.906,-26035.088,-26304.291,-23027.906,7099.629][7356.741,12680.771,-24409.982,-23020.730,-26037.232,-26305.498,-23032.711,7104.613][7345.431,12671.338,-24414.094,-23038.770,-26027.756,-26299.709,-23025.426,7051.417][7338.949,12666.376,-24415.301,-23043.553,-26021.117,-26291.619,-23022.541,7063.688][7363.402,12675.249,-24412.529,-23026.318,-26027.354,-26281.047,-23019.859,7116.080][7368.677,12675.606,-24417.201,-23023.994,-26040.607,-26305.275,-23026.721,7123.657][7324.957,12668.432,-24414.541,-23036.355,-26033.635,-26297.541,-23029.984,7037.983][7289.060,12648.047,-24431.617,-23062.887,-26046.844,-26300.961,-23044.066,6981.344][7344.962,12666.510,-24417.916,-23033.852,-26026.326,-26267.479,-23015.076,7121.668][7389.397,12685.308,-24406.047,-23012.148,-26026.303,-26291.641,-23012.773,7157.766][7360.697,12677.439,-24410.428,-23030.053,-26030.104,-26311.668,-23023.504,7097.148][7374.042,12687.051,-24395.654,-23028.645,-26014.076,-26286.119,-23012.506,7086.911][7360.116,12680.100,-24404.975,-23027.660,-26025.990,-26293.160,-23021.447,7080.272][7344.045,12672.857,-24413.445,-23018.586,-26037.926,-26313.746,-23039.820,7084.027][7336.513,12676.210,-24406.584,-23020.105,-26022.951,-26290.389,-23018.809,7085.749][7353.589,12675.584,-24405.242,-23035.998,-26018.346,-26278.029,-23006.717,7076.115][7342.928,12661.503,-24421.537,-23047.264,-26040.496,-26298.480,-23027.459,7060.536][7372.030,12683.564,-24403.857,-23014.428,-26025.969,-26281.650,-23029.135,7095.583][7367.850,12672.634,-24411.836,-23023.793,-26028.248,-26289.674,-23026.633,7098.199][7326.432,12661.458,-24411.412,-23035.572,-26013.742,-26260.482,-23010.359,7066.861][7326.879,12660.184,-24413.244,-23036.512,-26021.588,-26297.742,-23017.803,7071.667][7352.718,12665.414,-24417.693,-23028.555,-26037.055,-26309.365,-23031.371,7105.753][7346.191,12676.434,-24408.617,-23020.373,-26030.572,-26301.588,-23028.912,7078.507][7335.485,12668.477,-24411.076,-23038.010,-26021.990,-26288.891,-23020.529,7068.203][7342.727,12662.732,-24415.793,-23044.246,-2']
INDEX_b'0.8019523620605469'___FLEX_[]___EMG_[b'6025.096,-26287.818,-23023.994,7064.358][7347.711,12676.791,-24403.275,-23018.139,-26033.545,-26308.227,-23031.729,7081.949][7361.390,12679.675,-24402.717,-23008.371,-26025.924,-26296.447,-23027.324,7108.883][7370.957,12668.856,-24414.766,-23035.617,-26026.170,-26296.133,-23020.910,7096.746][7356.026,12658.150,-24421.939,-23051.174,-26034.596,-26302.459,-23032.936,7052.780][7317.581,12646.080,-24428.891,-23042.568,-26046.174,-26314.797,-23048.828,7036.418][7361.301,12661.413,-24419.279,-23022.051,-26036.070,-26303.018,-23029.537,7130.608][7383.742,12675.070,-24407.971,-23028.063,-26022.951,-26288.803,-23017.982,7119.231][7345.319,12670.556,-24402.539,-23032.711,-26016.848,-26276.240,-23011.277,7075.288][7361.860,12669.817,-24407.188,-23024.396,-26024.447,-26292.199,-23022.564,7098.333][7317.581,12657.814,-24413.961,-23016.238,-26031.443,-26298.861,-23038.301,7065.923][7336.200,12674.914,-24399.498,-23017.914,-26022.838,-26290.836,-23026.699,7065.990][7365.592,12678.960,-24396.637,-23029.762,-26013.115,-26280.152,-23014.652,7074.930][7376.209,12673.215,-24406.785,-23029.068,-26021.922,-26272.574,-23018.920,7094.287][7331.953,12663.336,-24415.414,-23020.598,-26032.965,-26296.982,-23040.311,7083.491][7342.369,12652.294,-24426.410,-23040.088,-26044.766,-26306.260,-23044.045,7082.016][7385.530,12674.132,-24399.588,-23027.906,-26014.635,-26274.877,-23007.477,7123.255][7368.587,12672.321,-24399.813,-23023.436,-26018.814,-26282.744,-23014.496,7090.375][7355.668,12672.925,-24405.689,-23014.740,-26030.885,-26294.904,-23027.885,7095.382][7346.437,12671.494,-24404.506,-23013.803,-26024.516,-26287.684,-23021.826,7097.595][7346.906,12653.836,-24418.252,-23039.217,-26022.727,-26270.229,-23018.854,7063.106][7348.270,12659.313,-24415.457,-23038.926,-26025.410,-26273.178,-23022.967,7050.209][7360.384,12675.965,-24403.275,-23013.176,-26026.482,-26292.982,-23021.246,7112.928][7360.273,12671.964,-24404.662,-23010.383,-26018.256,-26268.148,-23026.990,7107.743][7366.151,12675.249,-24397.152,-23021.648,-26019.979,-26291.283,-23013.154,7091.873][7332.981,12655.759,-24410.697,-23037.965,-26035.557,-26315.982,-23030.744,7044.465][7338.547,12654.887,-24419.459,-23031.191,-26045.615,-26318.150,-23042.234,7063.621][7343.375,12652.651,-24420.643,-23022.877,-26042.307,-26310.148,-23035.908,7080.831][7347.622,12658.999,-24408.439,-23027.996,-26027.846,-26294.770,-23021.604,7078.439][7355.690,12655.423,-24412.082,-23040.893,-26033.299,-26300.156,-23022.520,7072.159][7372.142,12664.229,-24410.271,-23024.754,-26032.271,-26293.518,-23023.391,7106.692][7353.612,12662.330,-24411.502,-23013.893,-26036.629,-26301.789,-23032.623,7099.048][7349.678,12668.164,-24401.420,-23019.703,-26030.125,-26298.258,-23028.041,7072.650][7347.510,12663.291,-24405.846,-23033.182,-26025.900,-26291.238,-23019.100,7063.308][7375.427,12659.625,-24417.939,-23031.305,-26027.645,-26283.840,-23022.318,7088.945][7351.712,12646.996,-24434.680,-23036.557,-26053.729,-26318.686,-23047.084,7079.445][7341.721,12658.999,-24413.156,-23023.168,-26030.551,-26291.439,-23021.045,7093.929][7353.746,12668.678,-24400.729,-23027.393,-26020.805,-26287.305,-23012.596,7076.763][7366.308,12669.952,-24403.545,-23022.408,-26025.566,-26292.178,-23017.355,7091.001][7373.371,12667.896,-24413.826,-23018.027,-26038.553,-26303.309,-23026.387,7112.750][7338.949,12657.658,-24414.967,-23024.576,-26036.809,-26301.363,-23023.928,7106.469][7335.083,12649.143,-24419.637,-23044.895,-26036.227,-26297.520,-23027.482,7065.789][7350.371,12648.941,-24423.750,-23045.297,-26037.904,-26295.865,-23039.373,7052.668][7371.717,12652.070,-24430.568,-23033.516,-26050.107,-26309.143,-23038.031,7076.629][7351.891,12685.129,-24396.705,-23005.107,-26023.375,-26268.619,-23018.475,7084.072][7328.846,12677.954,-24393.285,-23017.066,-26010.791,-26288.936,-23010.137,7053.607][7336.468,12665.705,-24407.076,-23032.488,-26031.713,-26312.338,-23025.291,7051.394][7369.124,12666.465,-24416.262,-23023.213,-26039.580,-26311.512,-23029.807,7102.378][7384.614,12674.288,-24411.100,-23018.115,-26038.910,-26308.918,-23026.252,7141.985][7368.878,12665.660,-244', b'11.904,-23035.148,-26030.930,-26300.023,-23018.563,7089.392][7353.254,12657.524,-24415.480,-23038.971,-26027.018,-26293.787,-23015.457,7072.673][7337.765,12657.122,-24420.264,-23029.023,-26034.818,-26281.561,-23025.313,7077.993][7334.725,12646.371,-24433.094,-23035.953,-26055.875,-26317.748,-23048.715,7073.634][7363.246,12659.826,-24415.234,-23032.824,-26034.373,-26310.551,-23023.771,7073.231][7353.813,12672.299,-24402.137,-23029.068,-26020.871,-26289.830,-23009.354,7063.911][7356.250,12674.176,-24406.518,-23021.492,-26030.930,-26298.883,-23021.156,7074.438][7360.519,12669.885,-24413.334,-23019.121,-26046.420,-26318.529,-23038.256,7092.320][7365.816,12664.163,-24414.742,-23033.182,-26045.012,-26306.260,-23035.596,7087.693][7341.207,12652.384,-24421.783,-23045.229,-26033.322,-26287.527,-23026.186,7046.365][7324.398,12647.443,-24429.986,-23044.447,-26046.934,-26311.803,-23036.109,7048.533][7349.544,12663.022,-24420.264,-23022.096,-26046.799,-26307.086,-23031.840,7106.133][7367.626,12675.204,-24409.064,-23023.234,-26038.195,-26302.348,-23026.900,7084.743][7360.519,12661.905,-24418.744,-23046.100,-26038.820,-26300.760,-23025.738,7068.828][7340.983,12659.268,-24420.197,-23038.814,-26037.904,-26296.691,-23027.324,7086.844][7357.725,12668.610,-24415.100,-23017.580,-26038.641,-26290.434,-23034.947,7095.829][7347.376,12666.309,-24416.061,-23022.408,-26031.980,-26291.283,-23027.258,7069.879][7354.774,12661.168,-24419.303,-23043.352,-26034.506,-26301.096,-23022.787,7076.025][7356.048,12652.294,-24428.803,-23050.303,-26042.396,-26286.365,-23032.266,7078.641][7401.914,12666.420,-24425.248,-23032.711,-26051.338,-26319.604,-23042.166,7102.848][7349.208,12666.420,-24420.129,-23028.488,-26050.912,-26331.695,-23044.916,7058.301][7340.268,12663.827,-24417.537,-23042.033,-26039.111,-26302.324,-23023.324,7074.908][7343.979,12667.604,-24411.881,-23036.490,-26028.293,-26287.752,-23017.535,7068.158][7344.917,12664.855,-24418.744,-23026.477,-26041.928,-26301.721,-23030.924,7093.326][7361.882,12681.619,-24406.115,-23010.830,-26029.500,-26296.691,-23028.465,7095.606][7340.603,12672.075,-24410.205,-23031.594,-26029.969,-26293.787,-23019.883,7060.044][7344.313,12661.212,-24418.564,-23042.859,-26030.797,-26290.701,-23017.938,7065.476][7355.266,12664.945,-24419.033,-23030.098,-26041.525,-26303.846,-23031.795,7083.558][7332.534,12652.540,-24430.926,-23032.533,-26056.455,-26322.576,-23051.063,7063.397][7317.335,12639.665,-24436.871,-23051.846,-26052.432,-26320.094,-23046.615,7030.048][7346.750,12654.306,-24423.012,-23047.396,-26033.926,-26276.420,-23022.006,7051.841][7382.803,12673.081,-24414.721,-23029.203,-26034.932,-26277.090,-23029.023,7098.042][7372.410,12676.881,-24413.043,-23014.941,-26037.502,-26297.229,-23032.086,7108.234][7383.027,12672.724,-24411.322,-23027.414,-26038.775,-26303.777,-23024.688,7097.036][7371.404,12655.602,-24426.254,-23051.957,-26039.604,-26296.490,-23026.922,7066.057][7332.020,12654.306,-24426.969,-23041.475,-26040.363,-26295.441,-23029.203,7062.682][7356.205,12671.159,-24413.111,-23015.725,-26045.771,-26312.785,-23033.674,7103.138][7364.922,12660.988,-24422.654,-23032.936,-26047.000,-26306.951,-23028.912,7102.222][7362.687,12660.206,-24416.576,-23044.246,-26041.324,-26303.285,-23027.258,7074.573][7342.749,12661.771,-24420.219,-23041.988,-26041.279,-26300.000,-23028.732,7045.068][7368.230,12657.301,-24429.674,-23031.170,-26049.326,-26301.387,-23032.600,7098.892][7345.878,12652.518,-24425.828,-23029.158,-26043.514,-26293.586,-23027.303,7092.566][7326.432,12651.266,-24421.359,-23042.971,-26036.629,-26286.232,-23023.504,7053.518][7348.382,12653.232,-24424.107,-23045.072,-26039.088,-26288.803,-23029.807,7049.360][7382.468,12664.006,-24424.219,-23031.416,-26049.035,-26295.240,-23038.412,7096.880][7386.066,12675.853,-24414.340,-23021.424,-26044.072,-26316.473,-23028.465,7119.276][7348.001,12660.117,-24417.313,-23038.412,-26037.434,-26303.219,-23021.826,7060.000][7319.727,12645.164,-24430.545,-23053.834,-26050.152,-26311.109,-23036.734,7030.428][7346.348,12659.111,-24424.645,-23033.113,-26046.867,-26307.578,-23040.893,7064.291][735']
INDEX_b'1.2048757076263428'___FLEX_[b'7\xac']___EMG_[b'8.730,12666.822,-24415.346,-23018.563,-26044.832,-26307.041,-23029.828,7102.669][7358.216,12662.911,-24413.625,-23031.840,-26032.584,-26286.857,-23016.842,7090.331][7357.590,12656.809,-24420.822,-23044.469,-26032.248,-26289.764,-23018.295,7075.422][7365.883,12662.353,-24421.045,-23034.566,-26046.018,-26308.561,-23030.834,7094.868][7366.554,12661.302,-24423.303,-23026.967,-26050.756,-26311.488,-23037.160,7099.651][7344.269,12646.147,-24431.932,-23046.949,-26047.738,-26305.699,-23032.131,7061.721][7333.696,12643.733,-24429.205,-23053.723,-26042.955,-26303.152,-23029.293,7038.721][7366.777,12660.564,-24421.203,-23038.188,-26040.430,-26295.598,-23033.494,7085.033][7384.971,12667.180,-24420.398,-23027.482,-26053.996,-26325.078,-23042.234,7116.482][7370.174,12662.844,-24414.943,-23028.375,-26039.424,-26299.219,-23026.408,7089.951][7340.313,12661.614,-24415.883,-23040.914,-26027.779,-26287.215,-23012.998,7054.814][7338.435,12656.183,-24424.443,-23044.268,-26043.447,-26303.645,-23029.717,7055.596][7347.577,12655.646,-24428.377,-23036.445,-26061.395,-26325.012,-23049.207,7063.777][7376.522,12667.873,-24421.471,-23036.221,-26047.045,-26310.395,-23032.266,7092.745][7355.266,12659.760,-24421.672,-23048.604,-26036.809,-26299.666,-23022.541,7074.349][7346.593,12651.489,-24430.166,-23051.555,-26048.006,-26314.797,-23039.418,7052.780][7346.303,12661.592,-24424.443,-23028.891,-26042.619,-26285.918,-23030.768,7072.539][7369.794,12669.505,-24417.090,-23024.955,-26038.217,-26290.188,-23025.135,7100.344][7366.755,12659.044,-24421.873,-23046.012,-26039.938,-26317.814,-23026.588,7076.093][7365.324,12664.408,-24417.738,-23043.172,-26035.982,-26290.479,-23020.754,7088.542][7349.879,12657.837,-24427.371,-23035.930,-26048.051,-26293.965,-23038.859,7075.243][7369.839,12668.454,-24416.531,-23024.934,-26047.918,-26329.818,-23037.518,7095.248][7378.266,12658.418,-24425.404,-23051.129,-26051.785,-26327.090,-23034.031,7063.911][7362.620,12654.462,-24421.939,-23044.938,-26034.014,-26302.549,-23021.826,7073.231][7338.435,12670.086,-24411.055,-23022.363,-26039.043,-26296.625,-23024.174,7077.255][7360.742,12677.283,-24408.863,-23011.590,-26026.281,-26282.945,-23019.523,7108.547][7347.309,12665.079,-24415.078,-23036.646,-26036.965,-26306.482,-23024.508,7067.755][7367.492,12666.777,-24414.273,-23042.814,-26033.881,-26297.922,-23021.648,7065.208][7357.322,12662.106,-24422.387,-23035.975,-26048.029,-26315.758,-23034.635,7084.944][7350.125,12666.890,-24420.264,-23022.363,-26046.174,-26314.998,-23036.244,7083.424][7334.255,12648.829,-24434.166,-23046.414,-26042.240,-26300.828,-23031.416,7058.010][7345.364,12649.053,-24430.367,-23056.584,-26047.471,-26314.418,-23031.729,7054.099][7334.166,12650.014,-24430.479,-23043.352,-26049.639,-26322.463,-23038.971,7048.712][7373.304,12662.396,-24427.797,-23029.738,-26055.473,-26319.982,-23046.123,7111.721][7375.137,12666.599,-24420.867,-23034.881,-26047.402,-26317.010,-23037.383,7077.858][7353.008,12655.915,-24425.404,-23050.639,-26040.922,-26301.432,-23026.564,7031.903][7358.596,12657.681,-24425.941,-23044.447,-26047.225,-26310.842,-23034.277,7068.023][7356.316,12663.447,-24419.549,-23022.006,-26046.174,-26310.215,-23032.734,7114.292][7356.831,12665.951,-24414.094,-23025.693,-26045.303,-26310.773,-23032.600,7090.621][7352.517,12657.167,-24419.369,-23043.754,-26036.607,-26298.771,-23020.709,7059.977][7356.361,12649.209,-24428.488,-23045.877,-26041.502,-26305.008,-23027.906,7063.710][7352.472,12658.999,-24423.438,-23029.537,-26052.389,-26317.881,-23039.932,7077.523][7356.875,12664.945,-24416.174,-23024.934,-26048.699,-26315.848,-23036.668,7086.308][7351.846,12663.313,-24414.967,-23039.977,-26038.037,-26297.855,-23026.543,7057.272][7335.083,12647.197,-24431.887,-23053.723,-26041.547,-26285.293,-23030.074,7040.352][7361.413,12641.565,-24445.207,-23050.459,-26064.123,-26329.059,-23045.051,7097.528][7354.081,12634.435,-24449.723,-23050.213,-26071.945,-26342.916,-23051.891,7088.118][7348.203,12655.155,-24425.270,-23043.955,-26042.508,-26311.713,-23029.807,7051.282][7351.846,12669.751,-24408.707,-23032.266,-26025.723,-26286.701,-230', b'14.674,7061.340][7355.042,12660.095,-24422.566,-23030.744,-26043.291,-26305.813,-23036.355,7060.826][7379.227,12662.396,-24427.148,-23028.711,-26054.176,-26316.205,-23040.199,7107.989][7345.297,12654.864,-24428.377,-23042.121,-26039.178,-26293.764,-23029.516,7070.125][7353.769,12662.554,-24414.898,-23035.975,-26025.924,-26290.680,-23015.613,7077.300][7355.154,12666.532,-24417.090,-23029.762,-26045.303,-26322.553,-23034.521,7072.293][7371.627,12676.836,-24416.217,-23021.045,-26051.650,-26326.777,-23041.607,7091.649][7369.146,12658.776,-24429.920,-23040.691,-26046.018,-26304.537,-23031.662,7081.457][7353.858,12658.150,-24421.895,-23044.357,-26041.949,-26309.232,-23027.816,7060.201][7358.664,12658.150,-24428.400,-23039.998,-26050.219,-26318.016,-23037.629,7062.615][7332.333,12660.899,-24426.119,-23024.285,-26057.461,-26327.158,-23049.654,7050.656][7327.907,12656.183,-24427.840,-23033.182,-26049.371,-26316.139,-23038.076,7064.582][7357.814,12660.273,-24426.053,-23047.129,-26042.150,-26305.254,-23025.447,7064.291][7346.035,12653.612,-24436.535,-23049.117,-26052.299,-26314.463,-23033.986,7063.732][7339.217,12658.597,-24431.662,-23030.053,-26060.814,-26326.979,-23046.502,7082.552][7357.658,12672.075,-24415.637,-23019.547,-26046.330,-26310.617,-23033.605,7095.024][7339.374,12656.921,-24429.271,-23045.229,-26042.664,-26302.639,-23024.777,7057.764][7341.318,12651.467,-24438.189,-23055.645,-26057.617,-26318.262,-23039.217,7057.362][7369.728,12667.403,-24426.455,-23028.621,-26055.896,-26320.006,-23041.295,7094.756][7357.054,12663.358,-24428.020,-23027.369,-26052.230,-26319.133,-23042.234,7068.605][7344.403,12656.697,-24430.143,-23046.547,-26047.648,-26316.406,-23038.344,7053.316][7354.931,12668.074,-24417.291,-23037.115,-26038.754,-26300.492,-23023.793,7063.509][7364.363,12670.376,-24421.426,-23026.520,-26047.963,-26300.225,-23033.605,7081.055][7370.286,12661.614,-24430.992,-23028.465,-26051.539,-26294.189,-23035.527,7101.395][7366.688,12665.190,-24422.051,-23035.818,-26041.613,-26309.635,-23026.230,7083.111][7350.550,12667.270,-24418.766,-23040.066,-26041.613,-26313.635,-23026.990,7062.234][7348.940,12661.860,-24427.863,-23032.891,-26053.416,-26322.621,-23037.406,7070.997][7362.485,12662.777,-24430.770,-23027.684,-26057.818,-26324.633,-23044.871,7066.683][7337.563,12648.941,-24439.307,-23051.197,-26056.791,-26316.898,-23045.340,7041.335][7324.756,12652.339,-24428.488,-23047.955,-26048.297,-26316.988,-23034.746,7046.298][7346.348,12657.457,-24430.791,-23036.557,-26050.621,-26318.082,-23032.287,7075.377][7342.525,12649.947,-24441.967,-23036.064,-26065.531,-26330.846,-23046.973,7082.910][7386.313,12673.282,-24422.209,-23032.824,-26049.816,-26315.133,-23031.705,7095.069][7371.449,12667.561,-24423.371,-23044.021,-26043.045,-26304.068,-23025.828,7064.023][7356.764,12666.867,-24423.281,-23034.344,-26046.152,-26305.969,-23032.443,7057.943][7357.009,12669.975,-24422.498,-23019.568,-26052.254,-26319.178,-23035.461,7100.724][7348.717,12664.342,-24424.779,-23029.939,-26053.281,-26312.941,-23034.746,7072.852][7335.284,12656.697,-24428.422,-23046.234,-26041.727,-26305.924,-23031.639,7032.686][7330.769,12647.287,-24442.570,-23057.143,-26065.934,-26338.602,-23052.605,7037.983][7363.111,12656.205,-24436.871,-23031.684,-26060.926,-26310.617,-23048.805,7096.098][7362.798,12662.509,-24428.355,-23025.000,-26046.643,-26294.479,-23023.279,7095.918][7344.269,12654.351,-24432.580,-23046.123,-26045.951,-26306.348,-23024.465,7058.368][7350.460,12657.993,-24430.098,-23042.658,-26045.057,-26304.113,-23026.633,7072.852][7355.937,12663.000,-24430.635,-23028.756,-26058.266,-26318.932,-23039.664,7086.017][7367.895,12657.658,-24435.799,-23033.404,-26065.576,-26326.645,-23048.426,7068.023][7345.409,12655.334,-24431.775,-23044.402,-26052.098,-26310.975,-23035.527,7045.806][7323.325,12645.119,-24439.441,-23053.053,-26056.455,-26313.389,-23034.813,7067.107][7349.633,12661.391,-24427.125,-23025.357,-26050.242,-26298.838,-23033.428,7086.352][7362.642,12664.386,-24430.479,-23023.994,-26051.449,-26289.070,-23038.881,7071.443][7360.496,12660.229,-24428.041,-23039.551,-26049']
INDEX_b'1.6077964305877686'___FLEX_[b'286,409,390,373,392\n286,408,390,373,391\n286,409,390,373,391\n286,408,391,373,391\n286,409,390,373,391\n286,408,391,373,391\n285,408,390,373,391\n286,409,390,373,392\n287,408,390,374,392\n286,408,390,371,391\n286,409,390,374,392\n285,409,390,373,391\n285,409,390,373,391\n286,409,390,373,392\n286,408,389,373,390\n286,409,390,373,390\n286,409,390,373,390\n286,409,390,373,391\n285,409,390,373,391\n287,409,390,373,391\n286,408,390,373,391\n286,409,391,373,391\n286,410,390,373,391\n286,408,390,372,391\n286,408,390,373,391\n286,409,390,373,391\n286,409,390,373,391\n286,409,390,373,391\n286,409,390,372,391\n285,409,390,373,391\n286,409,389,373,391\n286,408,391,373,389\n286,409,390,372,391\n286,409,390,373,390\n285,409,390,373,391\n286,408,390,373,391\n286,409,391,372,391\n286,409,390,372,391\n285,409,390,372,390\n286,408,390,373,390\n286,408,390,373,391\n286,408,390,373,390\n286,409,391,372,391\n286,408,390,373,391\n286,409,389,372,390\n286,408,390,372,390\n287,408,390,373,390\n286,409,390,373,391\n286,408,390,373,390\n287,409,390,373,391\n']___EMG_[b'.572,-26309.723,-23037.719,7060.894][7343.621,12662.665,-24421.939,-23039.775,-26045.078,-26314.641,-23031.438,7041.760][7333.428,12652.003,-24437.094,-23039.037,-26066.582,-26334.400,-23046.682,7057.183][7357.725,12652.741,-24445.811,-23038.100,-26074.627,-26338.781,-23052.738,7099.562][7380.970,12660.385,-24437.809,-23046.234,-26062.223,-26322.576,-23037.764,7101.484][7339.016,12663.067,-24423.660,-23041.340,-26047.895,-26309.879,-23031.840,7036.396][7353.120,12660.676,-24431.842,-23033.986,-26051.426,-26310.662,-23033.875,7056.959][7371.248,12665.124,-24431.662,-23022.988,-26060.748,-26321.459,-23044.961,7075.087][7352.070,12659.200,-24431.932,-23033.896,-26056.031,-26316.809,-23039.305,7070.952][7329.271,12644.068,-24441.318,-23055.332,-26056.479,-26317.189,-23038.947,7062.592][7343.531,12651.914,-24435.484,-23042.322,-26056.143,-26309.768,-23034.188,7073.478][7358.373,12660.273,-24434.680,-23029.047,-26066.021,-26323.336,-23047.195,7071.913][7341.475,12658.955,-24432.311,-23034.232,-26060.635,-26319.201,-23046.189,7052.958][7330.545,12651.937,-24430.254,-23047.375,-26053.125,-26311.043,-23038.277,7029.981][7354.729,12648.092,-24441.207,-23051.152,-26057.238,-26311.914,-23037.965,7066.079][7375.271,12675.674,-24417.625,-23015.992,-26049.906,-26307.980,-23035.059,7105.485][7357.590,12671.784,-24417.090,-23020.664,-26052.230,-26305.254,-23035.283,7095.315][7358.932,12656.094,-24428.400,-23043.352,-26043.514,-26293.563,-23028.264,7068.694][7349.745,12653.031,-24428.980,-23043.844,-26046.934,-26315.668,-23037.295,7055.015][7353.813,12663.515,-24428.154,-23031.482,-26057.305,-26308.650,-23043.373,7073.992][7338.726,12657.904,-24430.701,-23028.375,-26053.551,-26310.215,-23038.344,7057.094][7327.706,12647.131,-24433.227,-23045.586,-26043.291,-26293.072,-23032.668,7019.900][7331.014,12641.163,-24440.268,-23055.801,-26048.207,-26300.201,-23036.422,7040.665][7339.553,12643.040,-24445.029,-23048.783,-26072.125,-26340.904,-23053.410,7062.749][7353.500,12649.589,-24439.664,-23037.496,-26070.113,-26337.596,-23051.443,7102.110][7369.213,12660.721,-24423.213,-23037.652,-26048.275,-26311.512,-23032.020,7076.875][7354.372,12657.726,-24424.980,-23043.529,-26037.055,-26273.379,-23016.463,7060.379][7361.524,12654.172,-24433.271,-23037.629,-26053.236,-26307.422,-23034.500,7080.608][7353.724,12645.365,-24443.934,-23039.820,-26074.762,-26348.615,-23052.225,7073.522][7339.687,12648.248,-24436.244,-23046.189,-26062.514,-26327.537,-23044.871,7031.322][7358.909,12655.356,-24428.645,-23049.699,-26053.461,-26315.691,-23033.561,7052.400][7380.993,12659.156,-24430.098,-23038.523,-26053.752,-26311.557,-23036.936,7075.311][7392.079,12664.342,-24429.830,-23028.086,-26064.748,-26329.594,-23047.264,7101.395][7373.684,12668.544,-24418.027,-23027.885,-26055.070,-26318.529,-23039.529,7088.878][7356.674,12657.032,-24426.455,-23046.012,-26050.867,-26311.445,-23034.902,7047.482][7353.657,12654.730,-24431.484,-23043.352,-26055.404,-26315.691,-23037.854,7050.254][7358.574,12653.300,-24438.100,-23034.680,-26067.588,-26323.559,-23048.156,7055.596][7352.137,12650.953,-24435.037,-23037.295,-26063.385,-26320.094,-23045.184,7060.334][7343.464,12649.500,-24429.160,-23046.145,-26050.867,-26306.260,-23034.947,7042.297][7349.387,12649.388,-24435.396,-23049.252,-26057.082,-26308.762,-23039.752,7044.353][7351.019,12648.562,-24441.900,-23039.775,-26070.918,-26328.521,-23056.963,7070.169][7364.005,12641.833,-24448.941,-23046.369,-26071.609,-26342.805,-23054.059,7081.435][7369.012,12644.627,-24440.648,-23054.393,-26055.650,-26315.021,-23031.885,7056.065][7371.963,12657.681,-24427.840,-23045.787,-26054.914,-26303.018,-23037.518,7041.313][7356.361,12663.224,-24426.365,-23027.816,-26058.133,-26312.338,-23044.133,7073.924][7378.087,12665.929,-24429.941,-23027.482,-26046.398,-26302.771,-23035.773,7094.913][7360.898,12658.173,-24430.656,-23046.861,-26049.549,-26307.801,-23031.504,7050.321][7366.956,12653.725,-24432.467,-23053.275,-26057.037,-26321.369,-23035.416,7057.630][7371.985,12663.067,-24426.545,-23031.975,-26057.082,-26320.229,-23038.926,7086.240][7359.759,12658.440,-24432.6', b'68,-23029.359,-26064.234,-26327.807,-23049.744,7071.689][7342.682,12651.288,-24436.781,-23052.158,-26063.273,-26322.240,-23046.414,7031.657][7330.053,12638.548,-24443.643,-23064.965,-26060.703,-26308.270,-23045.609,7020.213][7340.000,12644.181,-24444.135,-23052.336,-26060.391,-26297.072,-23045.207,7054.613][7346.862,12659.446,-24430.746,-23030.834,-26062.961,-26327.605,-23047.889,7072.874][7360.384,12656.272,-24429.695,-23042.234,-26058.289,-26324.744,-23039.932,7078.797][7342.212,12651.981,-24430.008,-23053.678,-26053.506,-26314.932,-23036.221,7053.786][7339.731,12662.464,-24424.734,-23044.246,-26063.898,-26328.209,-23051.732,7046.186][7351.891,12657.882,-24435.484,-23035.887,-26067.252,-26331.338,-23056.918,7067.018][7371.248,12650.818,-24439.664,-23047.598,-26062.156,-26322.375,-23048.156,7078.417][7361.748,12656.675,-24430.322,-23053.857,-26047.270,-26298.033,-23027.035,7057.004][7346.794,12656.071,-24432.938,-23051.107,-26054.557,-26308.113,-23036.668,7055.082][7371.829,12660.877,-24432.893,-23034.723,-26061.664,-26315.311,-23043.730,7091.784][7357.590,12659.647,-24430.926,-23038.076,-26058.467,-26310.818,-23042.904,7060.983][7343.509,12650.886,-24433.518,-23057.188,-26058.467,-26315.781,-23044.223,7024.281][7341.050,12649.500,-24433.965,-23055.064,-26065.174,-26323.447,-23049.318,7029.735][7370.286,12656.987,-24435.574,-23035.193,-26059.607,-26307.197,-23045.273,7083.178][7360.273,12656.205,-24435.730,-23035.752,-26060.367,-26317.994,-23041.094,7082.597][7358.082,12666.107,-24422.566,-23045.430,-26052.545,-26311.221,-23040.781,7040.799][7356.674,12659.021,-24427.148,-23044.895,-26037.592,-26275.346,-23026.654,7055.484][7360.898,12665.481,-24424.420,-23028.822,-26050.354,-26307.266,-23037.383,7079.557][7349.231,12659.581,-24433.385,-23033.740,-26065.084,-26319.715,-23041.518,7084.095][7377.215,12660.832,-24429.875,-23047.486,-26050.891,-26294.166,-23033.338,7076.674][7368.319,12651.467,-24435.262,-23059.176,-26061.664,-26325.840,-23048.336,7038.430][7335.149,12654.641,-24429.092,-23036.311,-26061.217,-26321.793,-23052.762,7045.627][7359.177,12663.805,-24427.572,-23027.348,-26058.646,-26313.791,-23044.625,7091.538][7356.607,12656.541,-24433.898,-23049.141,-26059.607,-26316.406,-23046.727,7051.930][7351.064,12658.709,-24429.271,-23056.852,-26057.752,-26310.707,-23044.178,7027.143][7367.604,12660.766,-24427.572,-23038.902,-26052.678,-26284.846,-23037.920,7069.342][7365.190,12659.313,-24430.479,-23027.525,-26057.818,-26299.084,-23047.643,7084.966][7342.011,12653.635,-24430.857,-23042.211,-26064.301,-26329.840,-23052.068,7039.123][7333.965,12639.934,-24441.096,-23062.686,-26058.824,-26315.355,-23042.926,7034.116][7356.428,12649.813,-24437.004,-23048.850,-26057.863,-26311.779,-23042.658,7055.507][7372.499,12657.949,-24435.664,-23035.797,-26066.850,-26320.295,-23049.879,7091.292][7364.609,12656.541,-24432.512,-23040.334,-26061.283,-26314.373,-23045.676,7068.426][7334.903,12646.572,-24433.385,-23055.287,-26056.680,-26308.807,-23043.150,7014.737][7323.281,12641.521,-24439.643,-23055.600,-26064.010,-26313.568,-23048.984,7046.342][7354.998,12657.814,-24429.941,-23032.398,-26064.301,-26314.439,-23049.879,7089.504][7375.382,12667.426,-24422.654,-23029.180,-26054.332,-26306.795,-23038.367,7093.862][7379.696,12666.555,-24420.375,-23044.604,-26047.402,-26298.727,-23030.813,7069.164][7372.119,12663.135,-24424.107,-23046.033,-26051.203,-26303.934,-23037.182,7057.831][7353.031,12661.659,-24428.533,-23033.338,-26061.508,-26311.959,-23047.979,7055.730][7359.177,12658.709,-24430.680,-23034.947,-26065.865,-26313.701,-23047.598,7076.025][7368.319,12660.766,-24421.002,-23041.316,-26046.979,-26291.932,-23036.244,7075.400][7351.265,12644.739,-24436.736,-23054.729,-26051.672,-26303.777,-23038.277,7059.753][7342.190,12648.718,-24438.570,-23044.648,-26063.742,-26315.959,-23055.957,7054.188][7356.764,12662.889,-24428.533,-23030.879,-26063.967,-26320.453,-23048.045,7070.214][7357.814,12661.860,-24423.996,-23041.652,-26050.600,-26301.162,-23030.365,7058.077][7349.901,12652.651,-24426.633,-23048.760,-26050.443,-26303.777,-23034.434,7053.205][7356.58']
INDEX_b'2.008726119995117'___FLEX_[b'286,409,389,372,390\n287,409,390,373,390\n286,408,390,373,390\n286,408,389,373,390\n286,409,389,373,390\n286,409,389,373,390\n287,409,390,373,390\n286,409,390,373,391\n286,409,390,373,390\n286,409,390,372,390\n286,409,390,373,390\n286,409,389,373,391\n285,410,390,372,389\n286,409,390,372,390\n285,408,389,372,390\n286,408,390,372,390\n286,408,390,372,390\n285,408,390,373,390\n286,408,390,373,390\n286,408,389,373,391\n286,408,390,373,389\n286,408,389,373,390\n286,409,389,372,389\n286,408,390,373,389\n285,408,390,373,389\n286,408,391,373,390\n286,407,389,372,390\n286,408,390,373,390\n286,408,389,372,390\n286,408,389,372,389\n286,406,389,372,390\n286,408,389,372,389\n286,408,390,373,389\n286,408,390,372,390\n286,408,389,372,390\n286,408,389,373,389\n286,408,389,373,390\n286,407,389,372,388\n286,408,390,372,389\n287,408,389,371,389\n285,407,389,372,389\n286,408,390,371,390\n286,408,388,373,389\n286,408,390,372,389\n285,408,389,373,389\n286,408,389,372,389\n285,408,389,371,389\n285,408,390,372,390\n286,408,389,371,389\n286,408,389,373,389\n', b'286,407,389,372,388\n286,408,389,373,389\n286,408,388,372,389\n286,408,390,372,389\n285,408,389,372,389\n286,407,390,373,389\n286,407,390,372,389\n286,407,389,372,389\n286,408,390,372,389\n286,408,389,372,388\n285,407,389,373,389\n286,407,389,372,388\n286,408,389,372,389\n286,408,389,373,388\n285,408,389,372,389\n286,408,389,372,390\n287,408,389,373,389\n286,407,389,372,389\n286,407,389,372,389\n286,408,388,372,388\n286,407,390,373,388\n286,408,390,372,389\n286,408,389,372,388\n286,408,388,372,389\n285,407,389,372,389\n286,407,389,372,390\n285,408,389,372,388\n286,408,389,372,389\n286,407,389,372,389\n286,408,388,372,388\n285,407,388,371,388\n285,407,388,372,388\n285,407,389,372,388\n286,407,388,372,387\n285,407,389,372,387\n286,407,389,372,388\n286,408,388,372,388\n287,407,389,372,388\n286,407,388,372,388\n286,408,389,372,389\n286,408,389,372,388\n286,407,389,371,388\n285,407,388,372,388\n286,407,388,372,388\n286,408,389,372,387\n285,407,388,373,387\n286,407,389,372,386\n286,408,389,372,389\n286,407,389,372,388\n286,407,388,372,387\n', b'286,407,388,372,389\n286,408,389,372,388\n286,407,388,371,388\n286,408,388,372,387\n286,407,389,372,388\n285,407,389,370,388\n286,407,388,372,388\n286,407,388,372,389\n285,407,388,371,388\n285,408,388,372,387\n285,407,389,371,387\n286,407,388,372,388\n285,407,388,372,388\n286,407,389,372,388\n286,407,388,372,389\n286,406,388,372,388\n286,408,388,372,388\n286,407,389,372,388\n286,407,388,372,388\n285,407,388,372,387\n285,407,388,373,387\n286,407,388,372,387\n285,407,388,371,388\n286,408,388,372,387\n286,408,388,371,388\n286,407,388,372,387\n286,407,388,372,387\n286,408,388,372,388\n286,408,388,372,387\n285,407,388,372,387\n286,408,388,372,387\n286,408,388,372,388\n286,407,388,372,387\n286,407,388,372,386\n286,408,388,372,387\n286,407,389,371,388\n285,407,388,372,387\n286,407,388,372,388\n285,407,387,372,388\n285,407,389,372,387\n285,408,388,371,388\n285,407,388,371,387\n286,407,389,371,387\n286,407,388,372,388\n285,408,388,372,387\n286,407,386,372,392\n286,407,388,371,387\n285,407,388,371,387\n285,407,388,371,387\n286,407,388,370,387\n', b'285,408,388,371,387\n286,407,388,371,387\n285,407,388,372,388\n286,407,388,371,387\n286,407,388,372,387\n286,407,387,372,387\n286,408,389,372,387\n285,407,389,371,386\n286,407,388,371,386\n286,407,388,371,387\n286,407,388,372,387\n286,408,388,372,387\n286,407,388,372,387\n286,407,388,372,387\n286,407,388,372,387\n286,407,388,372,387\n286,407,388,371,387\n286,407,388,372,386\n286,407,388,372,387\n285,407,388,372,387\n286,407,388,371,387\n285,407,388,372,387\n286,407,388,371,387\n285,407,388,372,387\n286,407,388,371,387\n286,407,388,372,387\n286,407,388,372,387\n285,406,388,371,388\n285,407,388,371,386\n286,407,388,372,387\n285,407,388,372,387\n286,406,388,372,387\n285,407,388,372,385\n286,407,388,373,387\n286,407,388,372,386\n286,407,388,371,387\n286,407,388,372,387\n286,407,388,372,387\n286,406,388,371,386\n286,407,389,372,387\n286,407,388,372,387\n286,407,388,372,387\n287,407,388,371,388\n286,406,388,372,387\n286,407,388,372,385\n286,406,388,372,387\n286,407,388,372,387\n286,407,388,371,387\n285,407,388,370,387\n286,408,388,372,387\n', b'286,406,388,371,387\n286,407,387,372,388\n286,407,387,372,388\n286,407,388,372,387\n285,407,388,371,387\n285,407,388,371,387\n285,407,389,372,387\n286,406,388,371,387\n286,407,388,372,387\n285,406,388,372,387\n284,407,388,372,387\n286,407,389,371,387\n285,407,389,372,388\n285,407,388,373,387\n285,407,388,372,387\n284,407,388,372,387\n284,407,389,372,387\n283,407,389,372,387\n282,406,388,372,387\n282,407,389,372,387\n280,407,387,372,387\n279,407,388,371,387\n277,407,388,372,387\n277,407,388,372,387\n275,407,387,373,387\n275,407,388,372,387\n274,407,387,372,387\n272,407,389,373,388\n271,406,388,372,387\n270,407,388,372,387\n269,407,388,372,388\n267,408,388,372,388\n267,407,388,371,387\n266,407,388,372,387\n265,407,388,372,387\n264,408,388,372,387\n262,407,388,372,387\n262,407,388,372,386\n262,407,389,373,387\n261,407,388,372,387\n260,407,388,372,388\n259,407,388,371,388\n258,407,389,371,387\n258,407,389,372,387\n257,407,389,372,387\n256,407,388,372,386\n255,407,389,372,385\n255,407,388,372,387\n254,407,389,372,387\n254,408,388,372,386\n']___EMG_[b'4,12650.729,-24436.670,-23046.078,-26064.748,-26319.447,-23047.867,7062.816][7361.949,12646.594,-24443.441,-23041.295,-26072.125,-26331.605,-23059.803,7070.505][7365.525,12650.104,-24434.814,-23046.213,-26056.299,-26302.840,-23037.941,7086.151][7350.192,12648.137,-24432.490,-23053.455,-26051.158,-26302.906,-23031.863,7053.115][7343.442,12649.925,-24434.680,-23045.072,-26060.211,-26306.416,-23042.189,7049.695][7339.463,12643.487,-24443.152,-23039.887,-26066.582,-26286.635,-23052.158,7048.645][7364.430,12651.042,-24432.133,-23039.193,-26050.152,-26308.896,-23044.111,7063.330][7378.020,12653.791,-24426.813,-23048.045,-26052.477,-26325.236,-23034.389,7075.824][7379.942,12650.104,-24434.613,-23047.039,-26061.910,-26322.910,-23045.006,7070.348][7344.984,12651.422,-24433.943,-23029.537,-26065.217,-26326.354,-23054.281,7055.730][7356.048,12650.685,-24433.719,-23036.355,-26058.535,-26315.914,-23042.658,7079.781][7352.025,12649.790,-24431.752,-23052.225,-26052.545,-26307.287,-23035.729,7047.997][7362.508,12658.016,-24425.963,-23045.676,-26055.896,-26311.848,-23037.584,7060.268][7369.884,12650.953,-24436.961,-23034.656,-26061.842,-26315.691,-23041.877,7091.247][7375.763,12644.448,-24443.285,-23043.688,-26065.396,-26316.451,-23044.670,7081.122][7362.396,12645.924,-24435.016,-23051.600,-26048.699,-26293.160,-23035.975,7051.193][7348.024,12654.529,-24423.281,-23041.652,-26046.420,-26300.111,-23034.881,7045.046][7350.460,12653.121,-24433.160,-23035.082,-26061.373,-26314.977,-23047.979,7063.039][7360.697,12653.232,-24436.646,-23036.467,-26066.850,-26321.234,-23044.693,7082.731][7367.537,12651.221,-24434.346,-23049.855,-26055.248,-26309.992,-23033.918,7074.193][7353.746,12644.046,-24438.346,-23056.137,-26057.641,-26312.785,-23038.031,7059.440][7367.671,12656.876,-24427.572,-23033.182,-26060.391,-26317.189,-23045.453,7077.993][7365.011,12661.436,-24428.221,-23028.443,-26062.646,-26318.619,-23048.672,7067.264][7355.914,12654.060,-24429.875,-23042.436,-26052.723,-26306.930,-23040.043,7038.430][7345.699,12641.945,-24435.598,-23050.996,-26052.074,-26307.869,-23040.512,7033.848][7361.614,12643.487,-24442.594,-23045.453,-26064.748,-26320.631,-23052.158,7067.554][7378.042,12654.842,-24436.803,-23033.986,-26068.414,-26319.604,-23052.426,7079.870][7376.835,12652.696,-24433.629,-23042.322,-26056.188,-26307.734,-23039.148,7073.880][7366.799,12652.808,-24430.746,-23051.531,-26052.188,-26304.873,-23035.863,7054.568][7343.419,12649.410,-24434.367,-23040.914,-26055.852,-26313.076,-23044.580,7049.785][7348.940,12645.007,-24441.520,-23034.076,-26067.072,-26324.273,-23057.768,7063.106][7359.714,12648.248,-24429.629,-23033.875,-26060.703,-26313.725,-23050.996,7061.765][7364.989,12646.706,-24433.674,-23049.990,-26047.537,-26298.771,-23029.180,7066.884][7352.427,12641.855,-24440.111,-23051.152,-26058.199,-26309.143,-23039.908,7065.229][7350.326,12643.442,-24441.631,-23038.055,-26070.850,-26329.572,-23061.971,7062.324][7354.931,12650.394,-24433.316,-23036.512,-26060.502,-26303.219,-23046.748,7064.112][7352.628,12649.813,-24429.227,-23045.697,-26041.703,-26258.672,-23024.867,7041.291][7378.825,12659.268,-24422.900,-23037.361,-26047.246,-26309.545,-23031.729,7078.551][7387.475,12657.390,-24430.500,-23029.828,-26066.715,-26336.188,-23048.738,7097.104][7359.200,12644.270,-24440.760,-23038.076,-26070.604,-26331.873,-23056.248,7056.758][7326.119,12634.055,-24441.609,-23052.963,-26059.385,-26307.779,-23043.910,7015.966][7363.827,12651.735,-24428.803,-23041.832,-26039.066,-26290.947,-23033.830,7049.360][7399.031,12652.875,-24439.508,-23041.184,-26069.934,-26330.465,-23052.158,7080.988][7374.689,12648.964,-24438.078,-23035.082,-26068.570,-26325.973,-23053.633,7091.113][7363.737,12651.221,-24427.236,-23041.160,-26053.551,-26311.064,-23039.529,7073.880][7338.033,12639.821,-24434.680,-23051.846,-26057.037,-26311.287,-23048.916,7041.582][7350.997,12631.618,-24448.293,-23047.129,-26066.670,-26310.818,-23056.650,7059.262][7353.925,12643.644,-24438.480,-23030.455,-26069.240,-26329.371,-23055.824,7077.322][7364.229,12652.495,-24427.148,-23035.908,-26053.482,-26311.869,-23041.9', b'43,7053.383][7351.354,12643.175,-24433.697,-23048.381,-26050.711,-26303.666,-23036.936,7042.319][7339.217,12643.912,-24436.201,-23037.920,-26057.641,-26309.656,-23043.463,7056.602][7367.671,12657.368,-24426.389,-23019.367,-26058.244,-26313.568,-23047.621,7090.353][7362.508,12655.021,-24424.131,-23030.410,-26052.477,-26309.008,-23042.367,7068.158][7334.725,12641.207,-24431.551,-23047.688,-26055.115,-26317.076,-23051.398,7017.866][7345.632,12633.607,-24446.906,-23050.840,-26063.117,-26317.301,-23053.789,7042.654][7364.542,12637.854,-24449.857,-23040.557,-26069.330,-26312.004,-23045.139,7099.919][7343.218,12635.307,-24443.129,-23042.256,-26062.736,-26309.836,-23048.447,7075.288][7364.095,12650.483,-24429.986,-23047.352,-26047.201,-26304.984,-23042.166,7048.399][7368.722,12652.518,-24431.148,-23042.793,-26053.818,-26309.723,-23047.643,7071.667][7371.672,12657.814,-24429.092,-23024.643,-26060.658,-26312.115,-23050.795,7097.104][7375.896,12660.407,-24425.627,-23028.398,-26060.145,-26315.625,-23049.678,7083.536][7365.324,12642.571,-24434.635,-23048.381,-26053.840,-26303.912,-23044.559,7054.903][7341.788,12635.083,-24442.795,-23052.270,-26055.338,-26289.338,-23048.984,7044.487][7357.009,12649.589,-24432.400,-23026.297,-26056.971,-26307.801,-23053.678,7064.335][7362.731,12649.388,-24432.109,-23027.750,-26064.613,-26329.258,-23054.549,7060.446][7356.584,12642.839,-24432.355,-23042.859,-26051.002,-26300.357,-23042.814,7059.843][7365.034,12643.286,-24432.334,-23045.898,-26056.902,-26314.395,-23046.301,7072.271][7358.328,12646.817,-24435.283,-23030.723,-26058.938,-26305.969,-23048.604,7074.260][7365.414,12650.931,-24432.266,-23022.742,-26055.674,-26308.650,-23051.041,7071.712][7354.931,12645.074,-24430.299,-23039.484,-26056.455,-26317.926,-23053.029,7031.032][7352.204,12631.932,-24443.063,-23055.689,-26059.719,-26307.377,-23052.180,7039.547][7341.631,12631.730,-24446.572,-23043.240,-26054.557,-26297.832,-23058.953,7034.630][7361.145,12636.111,-24443.732,-23034.947,-26070.738,-26336.299,-23072.789,7070.505][7372.097,12635.083,-24441.766,-23048.135,-26066.201,-26329.215,-23063.781,7079.088][7369.839,12646.706,-24427.863,-23044.424,-26046.510,-26296.402,-23037.629,7064.648][7380.412,12656.563,-24421.828,-23028.711,-26052.723,-26307.086,-23046.570,7098.534][7374.980,12648.986,-24432.133,-23024.955,-26063.742,-26317.637,-23058.395,7096.857][7339.665,12622.253,-24451.824,-23052.203,-26066.693,-26314.752,-23063.355,7027.969][7328.332,12616.375,-24452.383,-23065.010,-26062.559,-26309.254,-23055.645,7037.066][7354.215,12635.329,-24436.916,-23040.893,-26054.533,-26306.260,-23048.471,7084.854][7389.621,12647.779,-24432.064,-23022.207,-26059.184,-26312.965,-23055.020,7113.040][7355.825,12640.291,-24434.926,-23036.377,-26062.826,-26315.424,-23059.109,7057.451][7341.296,12635.083,-24435.352,-23050.057,-26051.650,-26301.676,-23050.324,7021.420][7355.847,12626.188,-24444.471,-23053.477,-26063.631,-26313.299,-23062.865,7046.387][7357.434,12641.521,-24432.736,-23025.336,-26057.037,-26304.248,-23063.848,7067.129][7364.430,12649.769,-24425.471,-23021.223,-26049.684,-26305.008,-23049.477,7083.916][7344.425,12635.754,-24432.088,-23045.408,-26049.816,-26288.533,-23046.100,7055.462][7349.611,12631.819,-24441.564,-23054.014,-26056.902,-26289.965,-23055.309,7041.648][7394.471,12641.878,-24437.809,-23034.076,-26067.699,-26334.578,-23065.748,7106.089][7381.328,12645.901,-24428.199,-23022.318,-26059.496,-26313.725,-23055.266,7113.152][7342.034,12636.469,-24432.824,-23040.670,-26049.996,-26301.363,-23043.486,7053.629][7345.856,12633.071,-24436.803,-23047.150,-26054.287,-26307.600,-23050.369,7050.098][7359.714,12637.027,-24439.955,-23035.527,-26065.732,-26323.738,-23067.246,7071.265][7352.405,12625.226,-24451.914,-23038.658,-26067.363,-26317.926,-23072.096,7063.553][7335.909,12627.617,-24439.934,-23043.574,-26056.098,-26301.990,-23054.348,7030.696][7329.002,12626.522,-24439.955,-23050.816,-26063.184,-26314.305,-23054.281,7021.242][7354.796,12632.714,-24437.877,-23033.002,-26053.885,-26298.436,-23055.846,7082.105][7353.858,12633.094,-24440.760,-23029.672,-26068.102']
INDEX_b'2.409654140472412'___FLEX_[b'253,409,388,372,387\n251,407,388,372,386\n252,407,389,372,386\n251,408,388,372,387\n250,407,389,372,387\n250,407,388,372,386\n249,407,388,372,386\n250,408,388,372,386\n249,407,389,372,386\n248,407,389,372,387\n248,408,388,372,387\n248,407,389,372,386\n246,408,389,372,386\n246,407,388,372,386\n245,408,388,372,386\n246,407,388,372,386\n245,407,388,371,385\n244,408,389,372,385\n243,407,389,372,385\n243,407,389,372,383\n243,407,389,372,385\n243,407,388,372,385\n242,407,389,372,386\n242,407,388,372,385\n241,407,388,372,385\n241,407,389,372,384\n240,407,389,373,384\n240,407,388,372,385\n239,407,389,372,384\n239,408,388,372,384\n239,408,389,372,384\n238,407,388,372,385\n238,407,389,373,384\n237,408,389,372,384\n236,407,389,373,384\n236,407,388,372,384\n236,407,388,373,384\n236,408,388,372,385\n235,407,388,372,384\n235,407,389,372,384\n234,407,389,372,384\n234,408,388,371,384\n234,407,388,372,384\n233,407,388,372,384\n233,408,389,372,383\n233,408,389,372,382\n232,408,388,372,384\n231,407,389,373,384\n231,407,389,372,385\n230,407,389,372,384\n', b'229,407,388,372,384\n229,408,388,371,384\n229,408,390,372,384\n228,408,388,372,384\n228,407,389,372,384\n228,407,388,372,384\n227,408,389,372,385\n227,407,388,372,384\n226,408,389,371,384\n227,407,388,372,385\n226,407,389,373,384\n226,407,389,372,384\n225,408,389,372,385\n225,407,389,372,384\n224,408,389,372,383\n223,407,389,372,384\n223,408,388,372,384\n223,407,389,372,384\n222,407,388,372,384\n222,407,389,372,384\n221,408,389,371,384\n221,407,390,372,384\n220,407,389,372,383\n219,408,389,372,384\n219,408,389,372,384\n219,407,389,371,384\n217,407,389,372,384\n217,407,388,372,384\n216,407,389,372,384\n215,407,388,372,383\n213,407,388,373,384\n214,407,389,372,384\n213,407,389,372,384\n212,408,389,372,383\n211,408,388,372,383\n210,408,389,372,382\n210,407,388,372,382\n209,408,389,372,383\n208,407,389,372,383\n208,408,389,372,383\n206,407,389,372,383\n206,407,389,372,383\n205,408,389,372,382\n205,408,389,372,382\n204,408,389,372,382\n203,410,390,372,382\n203,408,389,372,382\n203,407,388,372,382\n201,408,389,372,382\n200,408,389,371,383\n', b'201,407,389,372,382\n201,408,388,372,382\n200,408,389,372,382\n199,408,389,372,383\n199,408,388,371,382\n199,408,389,372,383\n198,407,389,372,383\n198,408,389,372,382\n197,408,389,371,383\n197,408,389,371,383\n195,407,389,371,382\n195,408,388,372,383\n195,407,389,372,383\n195,408,389,372,383\n194,408,388,372,383\n194,407,388,372,383\n193,408,389,371,383\n194,408,389,373,383\n192,407,389,371,383\n192,407,389,371,383\n191,408,390,372,383\n192,408,389,372,383\n191,407,389,372,383\n191,406,389,371,382\n190,408,389,370,382\n190,407,388,372,384\n189,407,389,371,383\n189,407,389,372,384\n189,407,389,371,383\n189,407,389,372,383\n188,408,387,371,383\n189,408,389,372,383\n187,408,389,372,384\n187,407,390,371,383\n187,407,389,371,382\n187,408,389,372,383\n186,408,389,372,383\n186,407,390,372,384\n185,407,389,371,384\n185,408,390,372,383\n185,409,389,371,384\n185,409,389,372,383\n184,408,389,372,383\n184,407,389,372,383\n183,407,389,373,384\n184,407,389,372,384\n182,407,389,371,383\n183,408,388,371,383\n182,406,390,372,384\n183,408,389,372,383\n', b'182,407,389,371,383\n182,407,390,372,382\n182,408,390,372,383\n181,407,389,371,383\n181,408,389,371,384\n181,407,390,371,383\n180,407,389,371,383\n181,408,389,372,383\n179,407,390,371,384\n180,408,389,371,384\n179,408,389,372,383\n180,408,389,371,384\n179,408,390,372,384\n179,408,389,372,383\n178,408,389,371,384\n179,408,389,372,384\n179,408,390,371,384\n178,408,389,372,383\n178,408,389,371,384\n179,408,389,372,384\n178,408,389,372,384\n178,408,389,371,384\n177,407,389,371,383\n177,408,390,371,384\n177,408,389,371,384\n177,408,388,371,385\n177,408,389,371,384\n176,408,388,372,385\n176,409,389,371,383\n175,408,389,372,384\n175,409,390,371,384\n175,408,390,371,384\n174,408,388,371,385\n174,408,390,371,385\n174,408,389,371,385\n175,407,389,372,384\n174,408,390,371,384\n173,408,389,371,384\n174,408,389,371,384\n174,408,389,372,384\n173,408,389,372,385\n173,408,389,371,385\n173,408,389,372,385\n173,407,389,372,385\n172,408,388,371,385\n173,408,389,372,385\n171,408,389,371,385\n172,408,389,372,385\n171,408,390,371,385\n171,408,389,371,386\n', b'170,408,389,371,386\n171,408,389,371,385\n171,408,389,371,385\n170,407,389,372,386\n170,408,389,372,385\n169,407,389,371,386\n170,408,388,371,385\n169,408,389,371,385\n169,407,387,371,386\n169,408,389,371,386\n168,409,389,371,387\n169,409,389,371,385\n168,408,390,371,386\n168,408,389,372,386\n167,407,389,371,385\n168,407,390,371,386\n167,408,389,371,386\n167,408,389,371,385\n167,408,389,371,386\n167,408,390,371,386\n166,407,389,371,386\n167,407,390,372,386\n167,407,389,371,386\n166,407,390,372,387\n166,407,389,371,386\n166,406,389,371,386\n165,407,389,370,386\n166,405,389,371,386\n166,406,389,371,386\n165,405,389,371,388\n165,406,389,372,386\n164,405,389,370,387\n165,405,389,372,387\n165,406,389,371,387\n164,406,389,371,387\n164,405,389,370,387\n163,406,389,369,388\n164,406,388,371,386\n163,406,389,370,387\n164,405,388,370,387\n163,407,388,370,388\n163,407,389,371,387\n163,407,389,370,387\n163,406,389,371,387\n162,406,389,370,386\n161,406,388,370,387\n161,406,389,371,387\n162,407,389,370,387\n161,405,389,370,388\n161,404,389,370,387\n']___EMG_[b',-26329.281,-23071.000,7083.514][7358.797,12643.845,-24427.461,-23031.035,-26051.672,-26307.578,-23050.080,7080.451][7361.033,12649.098,-24418.027,-23031.840,-26041.703,-26298.078,-23043.932,7061.452][7356.272,12638.302,-24433.115,-23033.227,-26055.896,-26310.662,-23055.510,7067.644][7381.574,12632.267,-24444.805,-23030.678,-26067.631,-26320.117,-23062.418,7122.741][7354.976,12621.717,-24449.254,-23045.408,-26065.486,-26316.541,-23063.713,7063.419][7380.434,12633.071,-24441.832,-23055.756,-26061.463,-26311.646,-23056.717,7060.715][7339.262,12631.574,-24434.658,-23037.854,-26057.752,-26310.863,-23060.004,7050.992][7314.966,12636.290,-24430.791,-23020.217,-26060.502,-26314.529,-23065.367,7041.582][7335.708,12634.077,-24434.680,-23031.729,-26058.020,-26308.807,-23056.807,7051.618][7343.822,12635.284,-24428.779,-23042.166,-26049.527,-26301.721,-23049.609,7047.706][7333.115,12623.214,-24439.129,-23043.553,-26054.443,-26305.924,-23054.975,7053.182][7349.253,12635.575,-24433.563,-23024.240,-26060.457,-26314.283,-23061.434,7068.784][7361.792,12641.342,-24426.254,-23022.207,-26058.736,-26314.395,-23057.365,7102.602][7337.027,12619.370,-24439.195,-23047.441,-26056.791,-26310.707,-23053.230,7060.290][7349.790,12622.275,-24441.051,-23050.615,-26059.830,-26313.791,-23057.924,7052.802][7384.994,12647.153,-24423.572,-23019.078,-26055.920,-26313.299,-23053.611,7104.144][7398.963,12630.903,-24442.906,-23033.047,-26065.955,-26320.229,-23056.875,7107.027][7355.892,12621.627,-24444.426,-23051.732,-26060.793,-26310.506,-23053.275,7050.142][7334.479,12632.222,-24424.756,-23035.350,-26045.750,-26299.486,-23045.742,7044.733][7387.810,12650.551,-24419.348,-23017.313,-26054.221,-26308.002,-23050.549,7107.407][7326.991,12630.232,-24436.691,-23023.660,-26059.742,-26307.086,-23063.043,7043.280][7296.056,12604.707,-24452.316,-23053.611,-26068.793,-26324.252,-23066.285,7011.697][7346.370,12631.954,-24429.115,-23041.004,-26047.471,-26302.682,-23042.949,7072.941][7367.492,12642.481,-24427.014,-23025.828,-26049.996,-26304.449,-23043.598,7090.912][7351.108,12631.574,-24438.078,-23025.627,-26064.525,-26321.057,-23062.082,7073.187][7334.747,12620.264,-24444.090,-23046.258,-26069.309,-26328.543,-23070.889,7031.456][7363.022,12628.378,-24432.154,-23044.447,-26053.281,-26312.451,-23053.320,7065.923][7375.338,12634.301,-24431.506,-23034.455,-26058.109,-26316.451,-23055.309,7095.539][7376.075,12628.154,-24442.504,-23028.287,-26065.352,-26321.436,-23058.416,7114.359][7381.171,12616.353,-24449.924,-23043.262,-26068.102,-26324.811,-23061.635,7094.175][7339.821,12628.042,-24433.271,-23042.412,-26051.270,-26309.299,-23054.684,7018.112][7322.141,12627.797,-24432.043,-23032.221,-26050.555,-26308.629,-23052.336,7032.641][7340.022,12619.772,-24447.197,-23030.186,-26070.270,-26328.186,-23068.162,7057.317][7363.536,12632.334,-24435.910,-23027.861,-26062.156,-26320.496,-23058.059,7071.645][7365.525,12636.625,-24428.512,-23037.652,-26050.063,-26306.705,-23039.238,7096.321][7368.900,12635.978,-24433.898,-23040.424,-26057.908,-26314.082,-23046.480,7088.252][7330.031,12635.619,-24433.115,-23021.871,-26063.721,-26322.664,-23062.641,7036.239][7343.688,12634.301,-24430.299,-23016.932,-26058.178,-26318.396,-23057.969,7059.418][7349.544,12634.837,-24430.254,-23038.814,-26055.047,-26310.395,-23046.324,7057.272][7349.857,12625.226,-24440.424,-23047.420,-26060.434,-26315.826,-23051.555,7054.948][7372.499,12625.159,-24447.443,-23034.680,-26065.217,-26320.363,-23051.129,7118.449][7361.614,12636.357,-24435.352,-23024.955,-26064.189,-26322.844,-23055.398,7082.508][7373.795,12637.318,-24430.322,-23036.646,-26056.143,-26317.033,-23049.879,7058.703][7372.588,12622.208,-24445.633,-23052.516,-26060.658,-26318.283,-23051.219,7043.638][7344.671,12620.778,-24448.650,-23042.904,-26070.201,-26326.867,-23060.115,7060.245][7349.052,12623.952,-24443.777,-23028.979,-26068.861,-26328.924,-23061.770,7110.335][7323.012,12627.617,-24433.719,-23034.723,-26056.813,-26318.664,-23055.578,7062.257][7320.040,12612.553,-24449.477,-23055.779,-26061.932,-26319.088,-23055.510,7019.811][7339.418,12624.645,-24443.240,-', b'23039.551,-26067.408,-26326.354,-23061.590,7050.053][7362.128,12636.401,-24435.820,-23022.877,-26065.934,-26326.600,-23059.332,7081.323][7312.172,12611.100,-24451.846,-23047.799,-26069.375,-26329.594,-23063.223,7013.552][7357.613,12626.947,-24435.686,-23046.033,-26056.500,-26320.027,-23046.459,7088.386][7402.138,12640.358,-24433.629,-23035.461,-26058.848,-26318.553,-23045.408,7108.033][7394.314,12641.006,-24437.430,-23024.621,-26065.820,-26324.900,-23056.359,7092.543][7337.407,12644.001,-24423.951,-23021.850,-26053.416,-26314.148,-23048.313,7053.607][7353.165,12639.039,-24429.875,-23044.066,-26056.770,-26318.328,-23050.928,7042.341][7358.596,12618.923,-24447.867,-23048.828,-26066.871,-26327.561,-23060.092,7052.400][7348.292,12615.928,-24455.623,-23036.131,-26068.771,-26324.877,-23057.680,7068.493][7329.315,12621.985,-24445.990,-23036.490,-26067.252,-26327.404,-23062.574,7051.550][7351.466,12635.016,-24430.545,-23037.607,-26048.252,-26309.098,-23044.111,7072.069][7340.111,12622.253,-24441.588,-23046.904,-26063.430,-26325.459,-23058.975,7056.646][7341.944,12628.489,-24440.447,-23029.582,-26070.201,-26333.260,-23068.139,7067.018][7366.419,12642.235,-24427.930,-23016.932,-26057.977,-26320.721,-23054.527,7104.189][7359.625,12630.411,-24434.613,-23037.674,-26052.455,-26312.271,-23048.313,7048.824][7340.156,12616.620,-24449.143,-23052.203,-26061.172,-26319.893,-23057.098,7037.022][7369.102,12629.764,-24445.879,-23036.244,-26067.430,-26324.766,-23059.758,7091.649][7395.499,12647.354,-24432.668,-23024.107,-26068.033,-26328.699,-23063.400,7069.342][7345.699,12622.834,-24444.180,-23045.922,-26064.168,-26322.732,-23058.818,7030.026][7341.274,12623.796,-24441.273,-23049.721,-26058.355,-26315.736,-23050.885,7053.160][7383.317,12629.160,-24443.174,-23038.055,-26068.189,-26326.846,-23059.758,7091.716][7371.180,12632.513,-24438.189,-23025.357,-26070.693,-26333.059,-23072.162,7071.645][7379.048,12632.558,-24435.865,-23038.367,-26063.117,-26321.502,-23054.281,7097.104][7325.717,12621.158,-24438.033,-23045.766,-26056.254,-26313.211,-23051.152,7023.007][7322.409,12626.545,-24434.100,-23030.879,-26062.357,-26322.240,-23060.695,7036.955][7323.794,12611.479,-24453.947,-23037.965,-26081.914,-26340.256,-23077.996,7053.920][7326.343,12613.938,-24447.867,-23046.973,-26074.605,-26332.656,-23071.156,7037.178][7374.645,12635.865,-24427.863,-23040.602,-26052.902,-26310.818,-23046.301,7060.000][7382.312,12641.654,-24428.980,-23034.053,-26058.713,-26316.719,-23050.615,7079.758][7372.678,12629.674,-24441.186,-23029.047,-26071.453,-26330.107,-23064.518,7108.704][7370.443,12630.546,-24435.641,-23032.266,-26064.748,-26324.273,-23059.779,7074.640][7349.812,12622.745,-24438.211,-23049.029,-26061.596,-26320.453,-23055.668,7021.554][7358.104,12635.284,-24429.271,-23036.646,-26059.965,-26322.486,-23058.887,7042.453][7360.697,12629.495,-24442.504,-23036.557,-26082.340,-26344.703,-23079.650,7056.915][7332.959,12626.410,-24439.531,-23032.980,-26068.816,-26328.588,-23063.109,7067.934][7325.940,12621.471,-24437.652,-23048.090,-26062.379,-26323.291,-23059.557,7039.034][7331.618,12622.901,-24439.979,-23050.191,-26065.934,-26326.822,-23063.490,7043.973][7384.010,12647.600,-24426.521,-23023.615,-26062.445,-26323.066,-23058.305,7099.606][7377.193,12641.207,-24430.947,-23021.559,-26057.193,-26316.697,-23052.672,7085.212][7340.290,12623.505,-24438.973,-23045.252,-26058.266,-26318.775,-23056.650,7035.792][7333.965,12615.928,-24445.207,-23056.203,-26066.984,-26327.426,-23064.697,7032.171][7363.313,12624.556,-24444.918,-23041.898,-26076.305,-26336.232,-23068.631,7079.870][7383.809,12627.685,-24442.414,-23033.383,-26073.287,-26333.527,-23068.162,7094.734][7335.194,12627.461,-24433.070,-23040.043,-26058.803,-26318.977,-23058.283,7035.301][7371.516,12630.657,-24429.740,-23043.172,-26053.953,-26315.088,-23051.666,7091.896][7375.763,12641.342,-24425.896,-23028.152,-26060.658,-26325.303,-23067.625,7042.632][7326.410,12621.538,-24444.180,-23035.617,-26079.076,-26342.334,-23082.602,7048.712][7330.143,12612.173,-24452.025,-23057.566,-26079.209,-26339.406,-23075.918,7034.519][7334.568,12']
INDEX_b'2.8105814456939697'___FLEX_[b'162,404,388,370,387\n162,404,388,370,388\n160,404,387,370,387\n161,404,388,370,388\n162,404,388,370,388\n162,404,387,370,388\n161,403,387,370,388\n160,404,388,370,388\n160,404,387,370,388\n159,404,388,370,389\n159,404,387,370,387\n160,403,387,370,388\n159,403,387,369,388\n159,403,388,370,388\n159,403,387,369,388\n159,404,387,370,388\n158,404,387,369,390\n158,404,387,370,389\n158,404,387,369,389\n158,403,388,369,389\n158,404,387,368,389\n158,405,387,369,390\n157,404,387,369,389\n157,403,386,369,389\n156,403,386,369,389\n157,403,386,369,391\n156,402,386,368,389\n156,403,387,369,390\n155,402,386,368,390\n155,402,386,369,390\n155,402,386,368,391\n156,402,386,368,391\n155,402,386,368,390\n156,402,386,369,391\n154,402,386,368,390\n156,403,385,368,391\n155,402,385,368,391\n154,402,385,369,391\n155,402,385,369,392\n155,403,384,369,392\n154,402,385,368,391\n155,402,385,368,392\n154,403,384,368,391\n154,403,385,367,391\n154,403,385,368,392\n155,402,385,367,392\n154,402,385,368,392\n154,402,384,368,392\n153,402,385,368,392\n153,403,384,368,393\n', b'153,402,384,368,393\n152,401,383,367,393\n153,402,384,367,393\n153,402,384,367,393\n153,402,384,367,394\n152,402,384,367,394\n152,403,384,367,395\n152,402,384,367,394\n152,401,384,367,394\n151,401,383,367,394\n152,402,383,367,394\n152,402,384,367,394\n152,401,383,367,394\n152,402,383,367,395\n150,401,383,366,395\n152,401,383,366,395\n152,401,383,366,395\n152,401,382,367,394\n151,401,383,366,395\n151,400,382,366,395\n152,400,382,366,395\n151,400,382,366,396\n151,401,382,366,396\n152,400,382,366,396\n151,400,382,365,396\n151,400,381,366,396\n151,402,381,366,396\n150,402,381,365,396\n151,402,381,365,396\n151,402,381,365,396\n150,402,381,365,397\n150,402,381,365,396\n149,402,381,364,397\n150,402,380,365,397\n149,402,380,365,397\n150,402,381,364,397\n150,401,380,363,398\n149,402,380,364,397\n149,401,380,364,397\n149,402,380,364,397\n149,401,381,364,397\n149,401,380,364,398\n149,401,380,364,398\n149,400,379,364,398\n149,400,380,364,398\n149,401,380,364,398\n148,400,380,364,397\n149,401,379,364,398\n148,400,379,364,398\n149,400,379,364,398\n', b'148,400,377,363,398\n149,400,378,363,398\n149,400,379,363,398\n149,400,379,363,398\n150,400,378,363,399\n149,400,378,363,399\n149,400,378,363,399\n149,399,378,363,399\n149,400,378,363,399\n149,399,377,363,399\n149,399,378,362,399\n148,399,377,363,399\n149,400,378,363,399\n149,399,378,363,399\n148,399,378,363,399\n148,399,378,363,399\n147,399,378,362,400\n149,399,377,363,400\n148,399,378,362,400\n148,399,377,363,400\n148,398,377,362,400\n148,399,377,363,400\n147,398,378,362,400\n147,397,377,363,400\n148,398,378,363,400\n148,395,377,363,400\n148,395,377,363,400\n148,395,378,364,400\n148,394,377,364,400\n148,394,377,363,400\n148,395,377,362,399\n148,394,377,363,400\n148,394,377,362,400\n148,395,376,362,400\n148,396,377,362,400\n149,394,376,363,400\n148,396,377,362,401\n147,395,376,363,400\n148,395,377,363,401\n148,395,376,363,401\n148,394,377,362,401\n148,395,377,362,401\n148,395,376,363,401\n148,395,377,362,400\n148,395,376,362,400\n148,394,375,362,401\n147,395,376,362,401\n147,395,376,362,402\n147,394,376,361,401\n147,394,376,362,402\n', b'147,394,376,362,401\n148,393,376,362,401\n147,394,375,362,402\n148,394,376,362,401\n147,393,376,362,401\n148,393,375,362,402\n147,393,375,362,401\n148,393,375,362,403\n148,392,375,362,401\n148,393,375,362,403\n148,392,375,362,401\n148,392,375,362,402\n147,392,376,363,403\n148,392,374,363,402\n148,391,374,362,402\n148,392,375,362,402\n148,389,375,362,402\n148,390,374,362,402\n148,390,374,362,402\n149,392,374,362,402\n147,391,375,361,403\n148,391,374,362,402\n147,391,375,362,402\n148,390,374,363,403\n148,390,373,362,403\n148,390,374,362,402\n148,389,375,361,402\n147,390,375,362,403\n148,389,374,362,403\n148,390,374,362,402\n148,389,374,362,402\n148,389,374,362,402\n147,388,374,361,403\n148,388,374,362,402\n148,387,374,362,403\n148,387,374,362,402\n148,388,373,362,402\n147,387,373,362,402\n149,387,373,362,402\n148,387,374,362,403\n148,386,374,362,403\n149,386,373,362,401\n148,386,373,362,403\n149,386,373,362,402\n148,385,373,362,402\n149,385,373,362,402\n148,386,374,361,402\n149,386,374,361,402\n149,386,373,362,403\n150,385,374,362,401\n']___EMG_[b'619.795,-24443.666,-23059.557,-26066.604,-26325.906,-23064.854,7017.352][7345.811,12633.563,-24428.869,-23034.500,-26058.355,-26318.484,-23057.254,7069.812][7367.380,12649.321,-24417.916,-23014.652,-26061.709,-26325.771,-23062.953,7103.295][7365.548,12627.573,-24437.027,-23040.043,-26065.307,-26326.174,-23063.893,7082.843][7357.613,12619.816,-24441.117,-23056.002,-26061.150,-26322.084,-23060.115,7064.269][7345.096,12623.684,-24437.273,-23044.916,-26060.881,-26322.553,-23062.061,7062.726][7348.940,12626.299,-24436.646,-23030.209,-26071.119,-26336.479,-23075.852,7078.104][7324.242,12623.729,-24435.238,-23034.969,-26063.742,-26325.973,-23064.631,7041.537][7324.868,12620.890,-24436.111,-23050.324,-26053.684,-26315.580,-23055.689,7030.428][7349.276,12606.070,-24450.080,-23056.852,-26066.313,-26330.152,-23066.418,7092.655][7338.211,12615.525,-24447.846,-23041.832,-26075.477,-26340.547,-23079.338,7080.652][7350.259,12637.564,-24430.053,-23029.381,-26064.033,-26331.383,-23074.531,7044.577][7351.287,12631.909,-24431.193,-23045.252,-26053.551,-26317.367,-23057.098,7055.529][7335.977,12636.871,-24425.963,-23040.557,-26052.521,-26316.875,-23057.320,7026.382][7359.289,12631.507,-24437.742,-23036.244,-26073.621,-26339.205,-23076.320,7054.009][7348.493,12611.613,-24456.697,-23047.039,-26079.656,-26344.033,-23084.076,7062.503][7370.845,12634.636,-24435.955,-23049.318,-26063.027,-26327.135,-23064.563,7081.502][7342.973,12613.402,-24452.271,-23062.664,-26067.498,-26329.035,-23067.760,7024.617][7337.317,12610.161,-24456.809,-23047.420,-26071.453,-26335.227,-23078.488,7050.120][7347.577,12638.033,-24428.266,-23018.877,-26061.439,-26330.846,-23075.693,7063.665][7314.630,12608.127,-24451.689,-23054.125,-26068.525,-26332.521,-23073.281,7035.278][7319.436,12608.597,-24447.443,-23059.668,-26064.973,-26326.756,-23064.676,7059.575][7336.267,12627.797,-24435.574,-23035.215,-26059.764,-26320.877,-23058.059,7080.071][7332.490,12626.075,-24441.051,-23030.945,-26071.275,-26336.434,-23078.600,7061.363][7370.577,12639.665,-24432.289,-23036.602,-26055.428,-26318.955,-23063.021,7062.905][7347.622,12618.699,-24445.744,-23059.490,-26061.998,-26323.291,-23065.859,7038.542][7290.446,12589.083,-24471.158,-23070.889,-26089.156,-26349.152,-23092.078,6998.286][7329.986,12619.169,-24450.818,-23041.229,-26080.551,-26343.742,-23084.635,7050.992][7359.378,12620.979,-24442.324,-23041.832,-26064.256,-26328.365,-23075.158,7068.605][7325.426,12608.328,-24450.281,-23062.752,-26067.096,-26327.807,-23069.436,7041.984][7288.010,12599.946,-24454.842,-23055.467,-26068.816,-26328.611,-23073.639,7024.169][7325.874,12614.653,-24453.770,-23041.184,-26073.443,-26334.086,-23079.539,7039.503][7352.830,12627.729,-24440.492,-23041.229,-26072.213,-26340.658,-23089.352,7023.924][7362.754,12617.202,-24452.115,-23064.139,-26067.564,-26327.449,-23068.027,7051.394][7321.783,12620.376,-24442.906,-23053.566,-26063.787,-26326.420,-23066.240,7057.317][7315.368,12609.423,-24458.887,-23052.047,-26083.346,-26347.744,-23093.174,7023.387][7332.870,12619.951,-24451.533,-23047.955,-26080.730,-26346.871,-23090.850,7038.273][7342.615,12623.058,-24439.262,-23049.811,-26058.244,-26322.576,-23060.965,7086.754][7332.937,12606.674,-24461.793,-23070.219,-26071.900,-26335.271,-23078.555,7045.292][7298.023,12611.479,-24461.324,-23057.455,-26086.340,-26351.275,-23096.191,7016.905][7283.517,12607.926,-24461.346,-23052.113,-26082.340,-26344.592,-23090.313,7039.637][7330.232,12625.807,-24445.186,-23053.699,-26065.174,-26332.164,-23078.332,7029.914][7318.430,12618.811,-24452.941,-23064.475,-26070.939,-26339.004,-23082.623,6992.654][7356.160,12600.997,-24473.527,-23068.877,-26093.738,-26359.971,-23102.270,7051.237][7340.089,12601.712,-24471.182,-23060.785,-26098.611,-26364.016,-23103.545,7066.079][7315.994,12629.696,-24453.590,-23060.049,-26072.414,-26336.680,-23086.625,7007.250][7309.847,12633.831,-24442.771,-23053.900,-26056.479,-26323.336,-23073.906,7007.786][7325.627,12604.260,-24465.928,-23061.658,-26084.686,-26349.957,-23086.424,7058.524][7307.657,12586.691,-24489.598,-23076.053,-26113.586,-26376.443,-23111.436,7', b'064.604][7265.054,12623.840,-24450.193,-23055.377,-26073.779,-26334.848,-23081.037,7009.864][7266.105,12627.438,-24433.809,-23047.150,-26053.617,-26323.850,-23079.025,6981.321][7304.684,12619.102,-24448.584,-23046.660,-26064.994,-26334.734,-23083.785,7045.962][7308.551,12604.148,-24476.143,-23063.938,-26100.287,-26367.973,-23120.801,7027.500][7307.522,12578.221,-24500.797,-23092.637,-26107.887,-26370.453,-23118.453,7010.088][7343.241,12601.354,-24475.830,-23083.293,-26082.115,-26345.061,-23080.635,7031.344][7257.946,12625.807,-24444.201,-23051.488,-26070.561,-26346.023,-23111.680,6923.073][7297.800,12624.287,-24453.098,-23044.693,-26085.982,-26359.277,-23114.721,7024.661][7339.195,12600.796,-24478.668,-23068.787,-26094.588,-26361.691,-23102.270,7083.938][7304.706,12599.365,-24475.092,-23078.980,-26084.508,-26352.549,-23097.398,7057.429][7264.116,12625.539,-24449.633,-23053.477,-26064.123,-26330.063,-23085.686,7003.718][7303.410,12638.033,-24443.264,-23031.840,-26068.033,-26337.328,-23085.037,7045.694][7283.785,12620.711,-24459.803,-23048.156,-26079.926,-26342.201,-23091.340,7037.827][7269.614,12607.479,-24466.822,-23068.475,-26069.822,-26329.281,-23087.049,6983.624][7314.429,12623.460,-24461.883,-23069.145,-26074.359,-26341.061,-23094.537,6979.511][7313.803,12609.312,-24478.244,-23068.541,-26097.023,-26365.066,-23116.598,7011.451][7279.002,12603.902,-24481.238,-23066.463,-26103.506,-26370.453,-23124.734,7007.250][7302.940,12630.881,-24454.395,-23060.271,-26076.035,-26342.760,-23089.910,7018.023][7323.661,12638.860,-24452.449,-23058.930,-26058.467,-26318.262,-23060.785,7035.971][7296.324,12623.773,-24465.660,-23050.996,-26069.039,-26328.543,-23064.385,7104.658][7297.241,12599.388,-24485.934,-23066.619,-26101.025,-26367.793,-23111.121,7060.804][7347.264,12633.787,-24464.811,-23068.811,-26082.898,-26347.162,-23094.135,7047.750][7251.464,12599.052,-24485.664,-23087.854,-26082.742,-26348.324,-23109.625,6967.776][7176.094,12570.353,-24498.764,-23085.262,-26101.338,-26375.527,-23138.414,6940.619][7226.140,12583.875,-24501.400,-23078.041,-26113.744,-26381.650,-23133.430,6971.017][7354.573,12670.376,-24442.816,-23047.553,-26074.785,-26344.189,-23092.816,7026.025][7302.158,12642.057,-24452.719,-23060.518,-26067.229,-26338.043,-23091.252,6987.580][7292.726,12613.805,-24479.742,-23074.420,-26087.748,-26354.471,-23097.756,7028.573][7263.042,12617.001,-24477.305,-23057.479,-26092.688,-26365.088,-23112.283,7004.053][7254.951,12597.152,-24494.941,-23078.443,-26099.393,-26369.426,-23121.002,6982.819][7258.639,12567.000,-24516.375,-23111.793,-26106.322,-26378.545,-23133.541,6982.998][7269.972,12609.379,-24479.986,-23076.879,-26084.998,-26350.807,-23093.822,6980.517][7344.180,12662.330,-24444.068,-23029.471,-26064.904,-26334.646,-23083.674,7037.245][7327.975,12637.810,-24459.871,-23043.932,-26074.584,-26348.727,-23095.699,7066.370][7219.591,12584.322,-24491.633,-23088.971,-26094.477,-26371.906,-23128.176,6969.296][7237.227,12613.335,-24469.549,-23068.252,-26074.717,-26345.799,-23095.297,6969.296][7261.299,12620.979,-24478.467,-23060.563,-26083.145,-26348.771,-23090.447,7027.880][7220.261,12575.851,-24514.633,-23092.793,-26114.504,-26386.523,-23149.545,6964.312][7314.116,12639.308,-24465.951,-23071.023,-26076.617,-26338.758,-23077.885,7025.511][7297.040,12627.215,-24468.207,-23068.430,-26070.201,-26336.143,-23082.064,7034.988][7257.343,12609.043,-24484.748,-23066.775,-26092.465,-26361.625,-23107.701,6992.095][7232.711,12629.585,-24478.668,-23060.049,-26095.125,-26363.904,-23106.764,6987.826][7252.180,12612.575,-24497.355,-23086.490,-26099.035,-26369.627,-23118.945,6960.579][7323.638,12625.338,-24482.400,-23086.133,-26089.246,-26360.908,-23113.313,7032.507][7265.770,12588.479,-24501.779,-23087.988,-26112.135,-26386.457,-23142.303,7007.518][7302.851,12614.788,-24487.543,-23066.820,-26107.932,-26371.973,-23110.473,7013.597][7285.841,12615.503,-24487.207,-23072.609,-26080.260,-26345.934,-23094.180,7000.477][7248.872,12602.852,-24496.752,-23092.033,-26084.395,-26352.236,-23102.428,7002.243][7210.874,12601.667,-24485.979,-23071.648,-26088.039,-26']
INDEX_b'3.2155020236968994'___FLEX_[b'148,385,373,362,402\n149,385,373,362,402\n148,385,374,362,403\n148,385,374,362,404\n148,384,373,362,403\n149,384,373,361,403\n148,384,373,362,403\n149,384,374,362,403\n148,384,372,362,403\n149,383,373,361,403\n148,383,373,361,403\n148,383,374,361,403\n148,382,373,362,402\n148,383,373,362,403\n148,382,372,362,402\n149,382,373,362,403\n149,382,373,362,403\n149,382,374,362,403\n148,383,373,361,402\n149,381,373,362,403\n149,381,373,362,404\n150,381,373,362,403\n149,382,373,362,404\n150,381,373,362,403\n149,381,373,361,403\n150,381,373,362,402\n150,381,373,362,403\n149,380,373,361,403\n149,381,373,362,403\n150,380,373,362,403\n149,380,373,362,404\n149,380,373,361,403\n150,380,373,362,404\n150,380,373,361,403\n151,380,373,361,403\n150,379,372,362,403\n149,379,373,361,404\n150,380,373,361,403\n149,379,373,361,404\n149,379,373,361,404\n149,378,373,361,404\n150,379,373,361,404\n149,379,373,361,404\n150,379,373,361,405\n149,379,373,361,404\n149,379,373,361,403\n150,379,373,361,404\n150,377,373,362,403\n150,377,373,362,403\n150,377,373,361,404\n', b'149,376,372,361,404\n150,377,372,361,404\n150,377,373,361,404\n149,376,372,361,405\n150,377,372,361,404\n151,377,372,361,404\n150,376,373,361,405\n151,376,372,361,403\n150,376,372,361,404\n151,375,372,361,404\n151,375,371,361,405\n151,375,372,361,404\n151,376,372,361,405\n150,375,372,362,404\n150,375,372,360,404\n151,375,372,361,404\n151,374,371,361,404\n150,375,372,361,404\n150,374,371,361,404\n150,374,372,361,404\n150,374,371,359,405\n151,374,370,359,404\n151,374,371,360,404\n151,373,372,357,404\n151,374,371,358,404\n151,373,371,358,404\n150,373,371,358,404\n151,373,370,358,405\n151,373,371,358,404\n151,372,371,360,405\n150,372,371,360,405\n151,372,370,360,405\n151,372,371,360,405\n152,372,371,360,404\n151,371,370,358,405\n152,371,370,360,405\n151,371,371,359,405\n152,371,370,359,405\n150,371,370,359,405\n152,370,370,360,404\n151,371,369,360,404\n151,370,370,359,404\n150,370,371,359,405\n152,370,370,360,404\n151,370,370,360,404\n152,370,371,359,405\n152,370,370,359,404\n151,370,370,361,404\n151,370,370,361,406\n152,370,371,359,405\n', b'151,369,370,358,404\n151,370,370,357,404\n151,371,370,360,405\n152,370,369,359,405\n151,370,369,359,405\n152,370,369,359,405\n152,371,370,359,406\n152,370,370,358,405\n152,370,370,359,405\n151,370,370,358,405\n151,370,371,359,405\n152,370,369,360,405\n151,370,370,360,405\n152,370,370,360,405\n151,369,370,359,405\n152,369,370,360,405\n151,369,370,360,405\n152,369,370,361,405\n152,369,369,359,405\n152,369,368,360,405\n152,369,369,360,406\n152,369,371,360,404\n152,368,369,360,405\n152,369,370,360,404\n152,368,369,360,405\n152,369,369,359,405\n152,368,369,360,404\n151,368,369,358,405\n152,368,369,358,404\n152,369,370,357,406\n152,368,369,357,405\n152,367,369,357,405\n151,368,368,357,405\n153,368,369,358,404\n151,368,369,357,405\n153,366,369,358,404\n152,363,369,358,405\n153,367,369,357,405\n152,367,369,357,405\n152,368,369,357,405\n152,367,369,357,405\n153,367,369,357,405\n152,367,368,357,405\n153,368,368,358,405\n152,367,369,358,405\n152,367,369,358,405\n152,368,368,357,404\n152,367,369,357,405\n153,367,369,357,405\n153,367,369,357,405\n', b'153,366,369,358,404\n152,367,368,357,405\n152,367,369,358,405\n154,367,370,357,405\n152,367,369,358,405\n153,366,368,357,405\n153,367,369,357,405\n154,367,369,357,405\n153,366,369,358,405\n153,366,369,358,405\n154,366,369,358,406\n154,365,369,358,405\n152,365,369,358,405\n154,365,370,358,405\n153,366,369,358,405\n154,366,369,358,405\n154,365,369,357,405\n154,365,370,358,406\n155,365,370,358,405\n156,364,370,358,406\n153,364,369,357,405\n155,364,370,358,405\n154,363,370,358,405\n156,364,370,359,405\n155,363,369,358,405\n155,363,370,358,405\n155,362,370,358,405\n155,362,371,358,405\n156,361,369,358,405\n156,360,370,358,404\n156,361,369,358,405\n157,361,370,358,405\n156,361,370,358,405\n157,361,370,358,405\n157,361,370,358,405\n157,357,370,358,405\n158,360,370,358,405\n159,359,371,358,405\n158,359,370,358,405\n159,359,370,358,405\n159,358,370,358,406\n160,358,370,358,405\n160,358,370,358,402\n161,358,369,358,405\n160,357,370,358,405\n161,358,370,358,405\n160,358,370,357,405\n160,357,370,358,405\n161,357,370,356,404\n161,357,370,357,404\n', b'162,357,371,356,404\n161,357,371,356,404\n160,357,370,356,404\n162,358,371,356,405\n161,358,371,357,404\n163,357,370,356,404\n163,358,370,357,404\n163,357,370,356,404\n164,357,370,356,404\n164,357,370,356,405\n164,358,371,356,403\n165,358,371,356,404\n165,358,370,356,404\n166,358,370,356,404\n165,358,371,356,403\n166,359,371,356,403\n166,359,370,356,403\n167,359,371,356,403\n168,359,371,356,404\n168,359,370,356,403\n168,360,370,356,403\n169,360,371,356,403\n169,361,370,356,403\n169,360,370,355,402\n169,361,371,356,403\n171,361,370,356,403\n172,362,371,356,402\n171,363,370,356,403\n173,362,371,355,403\n173,363,366,356,402\n173,363,370,355,402\n174,364,371,355,402\n174,364,370,355,402\n175,365,371,355,403\n176,366,371,355,402\n176,364,371,355,401\n177,365,371,355,402\n177,365,371,355,401\n178,365,371,355,401\n179,366,371,355,400\n179,367,372,355,400\n180,367,372,355,400\n180,367,372,355,401\n182,367,372,356,400\n181,368,371,356,401\n184,368,372,356,400\n183,368,372,356,400\n184,368,372,355,400\n186,368,372,356,399\n186,369,373,356,400\n']___EMG_[b'367.301,-23133.250,6913.998][7241.898,12622.454,-24482.559,-23058.484,-26097.359,-26373.203,-23128.557,6943.167][7275.873,12656.205,-24454.574,-23046.637,-26075.365,-26352.057,-23100.371,6979.734][7256.717,12606.115,-24494.449,-23094.068,-26091.549,-26354.182,-23084.971,7001.952][7203.274,12560.429,-24538.326,-23121.852,-26125.143,-26391.285,-23141.029,6939.546][7249.967,12593.665,-24515.369,-23091.385,-26124.674,-26395.711,-23157.502,6993.324][7371.359,12634.189,-24491.924,-23079.605,-26098.813,-26362.607,-23105.533,7087.403][7296.369,12652.897,-24457.635,-23057.947,-26057.797,-26334.803,-23080.680,6959.685][7185.929,12626.746,-24467.918,-23056.092,-26061.037,-26338.535,-23089.553,6937.065][7264.361,12619.861,-24496.551,-23068.273,-26101.896,-26379.350,-23122.008,7028.751][7250.034,12655.848,-24465.906,-23049.141,-26082.943,-26359.076,-23108.797,6976.739][7241.361,12642.034,-24477.529,-23077.080,-26085.580,-26356.572,-23110.160,6945.469][7229.917,12597.264,-24503.635,-23096.102,-26101.449,-26378.389,-23134.523,6946.117][7243.820,12614.721,-24492.795,-23067.736,-26101.807,-26376.645,-23120.242,6978.997][7333.026,12674.847,-24453.367,-23029.537,-26062.982,-26341.664,-23095.721,7007.093][7302.918,12630.434,-24489.957,-23077.996,-26076.975,-26348.795,-23090.379,6998.443][7207.990,12589.910,-24523.529,-23115.592,-26115.555,-26379.416,-23116.979,6929.398][7300.370,12619.816,-24507.324,-23088.658,-26105.920,-26377.383,-23127.014,7028.372][7250.079,12628.892,-24481.998,-23051.600,-26089.760,-26371.838,-23119.727,7056.065][7222.876,12623.214,-24482.760,-23069.324,-26082.049,-26353.354,-23108.953,6950.141][7157.386,12585.172,-24519.281,-23108.686,-26105.205,-26371.191,-23127.773,6850.720][7206.157,12600.572,-24508.172,-23092.123,-26121.500,-26401.566,-23163.492,6932.326][7333.563,12683.967,-24454.842,-23033.605,-26072.885,-26342.580,-23089.553,7052.176][7304.394,12657.927,-24475.650,-23065.367,-26083.434,-26352.281,-23094.693,6993.771][7258.438,12626.701,-24482.535,-23072.453,-26072.438,-26349.063,-23105.109,6948.509][7268.541,12648.404,-24467.828,-23052.516,-26074.225,-26346.582,-23094.873,7007.294][7242.568,12626.746,-24498.338,-23069.145,-26108.736,-26385.965,-23134.838,6969.743][7223.436,12610.966,-24500.059,-23077.191,-26097.873,-26370.676,-23123.236,6946.408][7212.371,12618.543,-24487.297,-23073.615,-26076.191,-26348.504,-23102.182,6979.131][7264.965,12659.446,-24470.041,-23061.143,-26076.191,-26346.357,-23094.492,6996.744][7330.970,12681.955,-24457.256,-23033.113,-26069.756,-26341.887,-23087.877,7051.886][7226.162,12596.459,-24523.461,-23093.576,-26112.738,-26378.678,-23125.672,6977.834][7165.165,12560.585,-24544.383,-23130.500,-26135.604,-26407.178,-23154.037,6883.175][7307.143,12664.767,-24474.578,-23067.648,-26086.027,-26359.053,-23089.328,7039.436][7284.791,12654.954,-24483.496,-23059.199,-26098.813,-26377.896,-23146.750,6987.960][7231.236,12655.669,-24460.273,-23044.693,-26079.635,-26352.639,-23102.672,6941.245][7262.573,12633.898,-24485.619,-23084.881,-26096.219,-26367.480,-23112.910,6902.308][7279.002,12648.159,-24487.252,-23084.635,-26102.791,-26379.617,-23129.070,6905.705][7250.079,12665.615,-24468.744,-23044.246,-26085.088,-26365.826,-23117.066,7005.998][7213.936,12607.836,-24514.252,-23084.121,-26111.463,-26376.756,-23127.617,6963.417][7222.318,12604.617,-24510.631,-23094.291,-26105.340,-26368.621,-23109.602,6969.631][7266.954,12677.552,-24457.322,-23057.254,-26061.619,-26331.404,-23084.344,6980.986][7237.495,12644.672,-24479.629,-23057.365,-26087.010,-26360.328,-23111.838,6997.079][7290.043,12664.453,-24472.611,-23044.580,-26087.771,-26358.674,-23101.824,7027.746][7283.628,12678.714,-24473.125,-23057.320,-26071.006,-26333.350,-23081.326,6978.885][7228.844,12617.783,-24505.313,-23090.066,-26091.816,-26359.590,-23103.410,6958.254][7265.345,12656.720,-24476.881,-23056.092,-26080.283,-26351.744,-23087.205,6996.543][7278.219,12635.329,-24507.613,-23075.783,-26115.934,-26390.145,-23136.961,6978.751][7244.736,12612.598,-24525.451,-23108.664,-26127.221,-26396.537,-23144.447,6933.108][7224.933,12654.015,-24473.170,-2306', b'8.453,-26077.557,-26355.746,-23117.045,6903.180][7227.771,12656.585,-24479.115,-23062.953,-26078.449,-26345.777,-23094.111,6982.506][7263.266,12671.248,-24469.057,-23037.898,-26075.545,-26347.342,-23092.682,7029.311][7220.485,12625.182,-24496.930,-23068.967,-26096.801,-26375.215,-23126.545,6975.443][7186.622,12606.853,-24522.746,-23112.619,-26116.984,-26388.938,-23144.939,6895.647][7300.393,12701.289,-24457.301,-23054.572,-26068.078,-26333.797,-23081.551,6990.039][7271.357,12673.350,-24482.289,-23064.250,-26095.906,-26367.078,-23123.281,6948.196][7251.554,12646.482,-24493.354,-23078.332,-26104.914,-26369.850,-23115.682,6987.714][7249.542,12668.164,-24470.555,-23069.279,-26085.625,-26343.854,-23087.273,7004.053][7259.891,12664.677,-24474.131,-23064.406,-26075.230,-26350.492,-23111.838,6990.843][7270.508,12649.835,-24491.609,-23061.902,-26079.188,-26353.332,-23098.918,6999.873][7247.240,12658.194,-24478.221,-23054.906,-26087.436,-26356.482,-23103.836,6978.416][7250.526,12627.171,-24507.793,-23100.684,-26110.436,-26382.344,-23140.895,6908.231][7232.354,12618.990,-24530.525,-23119.549,-26125.947,-26396.895,-23158.508,6862.589][7222.586,12671.807,-24473.996,-23050.369,-26083.076,-26343.496,-23087.361,7041.135][7269.323,12676.031,-24468.275,-23044.514,-26080.932,-26348.146,-23101.287,7034.206][7249.073,12659.692,-24480.703,-23071.471,-26077.377,-26349.486,-23098.516,6945.536][7235.729,12646.460,-24494.426,-23087.631,-26096.689,-26359.166,-23108.707,6947.615][7284.232,12676.411,-24476.322,-23054.684,-26104.646,-26348.816,-23089.775,7039.369][7238.143,12651.109,-24496.662,-23056.070,-26082.182,-26366.475,-23118.588,6992.586][7242.568,12650.483,-24496.551,-23079.875,-26098.768,-26375.639,-23129.785,6936.685][7287.853,12687.811,-24465.660,-23061.814,-26068.414,-26330.779,-23079.629,6992.028][7272.118,12670.846,-24487.967,-23066.754,-26085.199,-26351.275,-23105.713,6949.336][7284.411,12651.311,-24510.586,-23077.260,-26115.219,-26381.584,-23135.463,7001.169][7246.078,12642.839,-24501.557,-23071.180,-26080.842,-26356.506,-23110.563,6988.094][7167.891,12632.982,-24501.289,-23078.152,-26067.900,-26356.818,-23120.063,6866.947][7254.549,12666.196,-24489.441,-23071.357,-26088.799,-26345.150,-23096.393,6978.863][7273.123,12662.665,-24498.002,-23071.180,-26105.674,-26365.826,-23113.379,6995.961][7255.555,12651.735,-24509.021,-23088.502,-26116.828,-26375.750,-23137.252,6941.312][7264.764,12659.446,-24496.707,-23088.367,-26095.660,-26355.656,-23110.607,6971.531][7250.146,12673.752,-24479.563,-23064.205,-26079.410,-26340.613,-23088.949,6986.462][7215.053,12655.803,-24500.887,-23062.730,-26097.605,-26360.373,-23114.898,6980.494][7248.402,12667.604,-24490.158,-23064.340,-26090.363,-26353.422,-23106.986,6997.303][7250.436,12659.313,-24494.158,-23082.936,-26082.607,-26342.938,-23095.900,6970.816][7263.780,12664.364,-24489.934,-23065.725,-26074.248,-26350.002,-23101.668,6982.729][7289.306,12679.943,-24486.090,-23048.045,-26105.629,-26358.785,-23104.684,7032.038][7270.933,12675.696,-24483.967,-23035.908,-26083.859,-26352.371,-23111.121,7020.526][7242.658,12658.396,-24495.432,-23054.975,-26027.131,-26338.244,-23096.191,6978.795][7230.320,12653.568,-24507.883,-23092.727,-26096.354,-26350.291,-23110.205,6931.142][7253.275,12665.392,-24502.496,-23082.914,-26106.590,-26356.482,-23101.645,6994.911][7269.748,12672.231,-24498.383,-23069.861,-26092.441,-26362.875,-23104.908,7025.734][7258.840,12667.359,-24497.467,-23084.523,-26094.051,-26351.209,-23103.143,6978.080][7278.085,12659.268,-24502.697,-23092.189,-26087.682,-26351.498,-23103.209,6992.296][7252.560,12653.770,-24501.088,-23032.332,-26029.008,-26319.402,-23102.561,6997.929][7245.563,12652.629,-24515.414,-23059.020,-26105.496,-26344.682,-23120.732,6971.755][7281.840,12665.794,-24503.076,-23087.430,-26114.973,-26385.943,-23112.955,7000.119][7260.785,12653.345,-24508.373,-23090.715,-26098.455,-26365.334,-23106.719,6974.325][7269.748,12678.088,-24491.119,-23072.029,-26100.488,-26353.242,-23096.594,7023.611][7294.961,12678.893,-24494.627,-23063.803,-26106.748,-26364.262,-23105.109,7063.464][7272.766,12669.']
INDEX_b'3.621413469314575'___FLEX_[b'186,368,372,356,399\n186,369,373,356,399\n187,369,373,355,399\n188,370,373,356,399\n189,370,372,355,399\n190,370,373,356,400\n190,371,373,356,398\n191,370,373,357,399\n191,371,373,356,398\n191,371,373,356,398\n193,371,373,355,398\n192,371,372,356,398\n194,371,373,355,397\n195,371,373,357,397\n195,371,373,356,398\n195,372,372,356,398\n197,372,374,355,397\n198,372,373,357,397\n198,372,373,355,397\n199,373,374,356,397\n199,373,374,355,396\n199,374,375,356,396\n200,374,373,356,395\n202,375,374,356,396\n202,376,374,356,396\n203,376,374,356,395\n204,376,373,357,396\n204,378,375,356,396\n205,378,376,357,395\n207,378,374,357,395\n207,379,374,356,396\n207,379,374,357,395\n208,379,374,359,396\n209,380,374,360,396\n209,380,374,360,396\n210,380,374,361,395\n211,381,373,360,396\n211,381,375,361,395\n212,382,374,361,396\n213,383,375,361,396\n213,383,375,361,396\n215,383,375,361,396\n215,384,375,361,396\n216,385,375,361,396\n216,385,376,361,396\n217,385,375,361,396\n217,386,375,361,396\n218,386,376,361,395\n218,386,374,362,396\n220,387,376,362,396\n', b'220,387,376,361,395\n221,387,376,362,396\n221,388,376,361,396\n222,388,376,361,396\n222,388,376,362,395\n223,388,376,362,395\n224,389,376,362,395\n224,389,376,362,396\n225,389,377,362,395\n226,389,376,362,396\n227,390,376,362,396\n227,390,376,362,396\n227,391,377,363,396\n227,391,376,362,396\n229,391,377,363,396\n230,391,376,362,396\n231,391,377,362,395\n231,392,378,363,396\n231,392,376,362,396\n232,392,378,363,395\n233,393,377,363,396\n234,393,378,362,396\n234,393,377,362,396\n235,393,378,363,396\n235,393,376,363,396\n235,394,377,364,397\n236,394,377,362,398\n237,394,376,363,397\n237,395,377,363,396\n239,395,379,363,396\n239,395,378,363,397\n239,395,377,363,397\n240,395,378,363,397\n240,394,377,363,397\n241,395,378,364,397\n241,394,378,363,397\n242,395,378,363,396\n242,395,378,363,397\n243,396,378,363,396\n244,395,378,364,397\n244,396,378,363,397\n245,395,378,364,396\n245,395,378,363,397\n245,395,378,363,397\n246,396,378,364,397\n247,395,378,364,396\n247,395,378,364,396\n248,396,378,363,397\n247,395,379,363,397\n247,395,379,364,397\n', b'249,394,379,363,397\n248,396,379,363,397\n249,395,378,364,397\n249,397,379,364,397\n249,396,379,364,397\n250,396,378,364,398\n250,397,379,364,396\n251,396,379,364,397\n251,396,379,364,397\n252,397,379,364,397\n252,397,379,364,397\n252,396,379,365,397\n253,397,379,364,397\n253,395,379,364,397\n254,396,379,364,398\n255,398,380,364,397\n255,397,380,365,398\n254,397,380,364,397\n255,397,380,364,397\n256,397,380,365,397\n256,397,380,365,398\n257,397,380,364,398\n257,397,380,364,397\n257,398,380,365,397\n257,398,380,364,398\n259,399,380,364,398\n258,398,380,365,398\n259,398,380,365,398\n259,399,379,365,398\n260,398,381,365,398\n260,399,380,364,398\n261,399,380,365,398\n261,399,380,364,398\n262,399,380,365,398\n262,399,380,365,398\n262,399,380,365,398\n262,399,380,365,398\n262,399,380,364,398\n263,399,380,364,398\n263,399,380,365,398\n263,399,381,365,398\n264,399,380,365,398\n264,400,380,365,398\n265,400,381,363,398\n265,400,381,365,399\n265,400,381,365,398\n266,400,381,365,398\n266,400,381,365,399\n267,400,381,365,398\n267,401,381,365,397\n', b'268,400,381,365,399\n268,400,381,365,399\n269,400,382,365,399\n269,401,381,366,399\n269,400,381,365,398\n270,400,382,365,399\n271,400,381,366,399\n271,400,382,366,399\n271,400,382,366,399\n272,401,381,365,398\n272,401,381,366,398\n273,401,381,366,399\n274,401,382,366,399\n274,401,382,366,400\n275,401,381,366,400\n275,401,382,365,399\n275,401,382,366,400\n276,401,381,365,399\n276,402,381,366,399\n277,401,382,366,399\n278,401,382,366,400\n278,402,382,366,400\n278,401,382,366,400\n279,401,381,366,400\n279,401,383,366,399\n280,401,382,366,400\n280,402,382,366,400\n280,402,383,366,400\n281,402,383,366,400\n280,402,383,366,399\n281,401,382,366,400\n282,402,382,367,400\n282,403,383,367,400\n283,402,383,367,400\n283,401,383,367,400\n284,402,383,367,401\n284,402,382,367,401\n285,401,383,367,400\n285,402,382,366,400\n286,402,383,367,400\n286,402,382,367,400\n286,402,383,367,401\n286,401,382,366,400\n287,402,383,367,400\n288,402,383,368,401\n288,402,383,367,401\n287,402,384,367,400\n288,402,383,367,401\n288,402,383,367,400\n289,402,382,367,401\n', b'289,402,383,368,401\n289,402,383,367,401\n289,402,383,367,402\n289,403,384,367,400\n291,402,384,367,401\n291,402,383,367,401\n291,402,383,367,401\n291,401,384,367,401\n291,402,383,367,400\n292,402,384,367,401\n292,402,385,367,401\n292,401,384,368,401\n292,402,384,368,401\n292,401,384,368,401\n292,401,384,367,401\n294,402,384,367,401\n293,402,384,367,401\n293,401,384,367,401\n294,401,384,368,401\n295,402,384,368,401\n294,402,384,368,401\n295,402,385,368,402\n295,402,384,368,401\n296,401,384,368,401\n295,402,384,368,402\n296,402,385,368,401\n296,403,385,368,402\n296,403,384,369,403\n296,402,384,368,401\n296,402,384,369,402\n297,402,385,369,402\n297,403,385,368,402\n296,403,385,368,401\n296,403,384,368,402\n297,402,385,368,403\n298,403,384,368,402\n297,403,385,369,402\n297,403,385,368,402\n297,403,384,368,403\n298,403,385,368,402\n298,403,384,368,402\n298,403,384,369,403\n298,402,385,369,401\n299,403,385,368,403\n298,402,385,368,402\n299,403,384,369,402\n299,403,385,369,403\n300,403,385,369,404\n300,403,385,368,402\n299,403,384,369,403\n']___EMG_[b'729,-24500.059,-23076.521,-26102.455,-26359.523,-23104.527,7001.930][7230.968,12664.006,-24496.551,-23085.775,-26095.258,-26356.641,-23105.713,6962.814][7243.105,12661.570,-24502.809,-23082.623,-26093.828,-26360.484,-23109.803,6973.297][7271.424,12670.398,-24501.691,-23064.676,-26107.105,-26372.465,-23120.084,7001.527][7257.343,12663.738,-24502.652,-23069.771,-26106.770,-26373.717,-23121.449,6997.750][7226.676,12635.843,-24524.824,-23103.521,-26101.674,-26358.025,-23106.809,6975.398][7246.927,12647.488,-24522.500,-23102.717,-26109.832,-26363.436,-23113.625,6951.258][7259.243,12657.703,-24518.164,-23083.896,-26103.439,-26373.648,-23122.834,6975.107][7268.027,12663.850,-24506.988,-23074.846,-26103.082,-26366.496,-23112.730,7018.828][7254.862,12652.986,-24511.303,-23092.502,-26097.092,-26361.133,-23109.400,6971.308][7300.146,12644.851,-24526.412,-23106.271,-26110.078,-26373.068,-23118.342,6993.615][7297.688,12638.458,-24539.443,-23104.080,-26133.525,-26383.016,-23127.326,7058.994][7268.474,12675.138,-24497.332,-23067.201,-26095.705,-26355.590,-23108.529,7029.221][7215.679,12646.975,-24511.303,-23091.787,-26091.012,-26359.500,-23120.889,6955.036][7211.075,12629.405,-24527.150,-23105.959,-26104.646,-26370.453,-23130.076,6938.987][7270.642,12671.964,-24497.197,-23068.162,-26086.318,-26349.846,-23090.781,6998.197][7281.282,12671.695,-24499.367,-23067.334,-26093.291,-26358.271,-23098.693,7042.990][7286.244,12661.637,-24505.244,-23087.361,-26090.229,-26348.928,-23098.047,7000.030][7273.347,12655.982,-24508.016,-23095.945,-26082.541,-26348.459,-23104.818,6942.362][7246.301,12658.955,-24505.199,-23075.650,-26094.566,-26364.799,-23118.432,6965.608][7283.315,12669.616,-24498.002,-23060.338,-26101.605,-26367.145,-23111.121,7056.132][7284.411,12670.577,-24489.285,-23072.498,-26098.813,-26360.953,-23107.031,7020.057][7230.834,12634.994,-24518.611,-23105.199,-26106.301,-26360.730,-23107.434,6942.317][7216.842,12623.729,-24532.268,-23103.031,-26109.139,-26355.254,-23112.730,6918.491][7302.494,12660.430,-24508.820,-23069.213,-26081.266,-26323.693,-23098.158,7036.508][7330.634,12663.827,-24503.055,-23073.012,-26080.953,-26352.416,-23092.973,7059.284][7329.383,12662.106,-24501.646,-23088.680,-26100.332,-26360.037,-23094.828,6992.028][7291.787,12653.992,-24506.564,-23084.479,-26101.584,-26350.447,-23095.475,7023.275][7245.675,12659.335,-24496.996,-23054.684,-26089.715,-26343.832,-23100.705,7021.219][7234.611,12652.316,-24500.506,-23065.100,-26101.160,-26370.945,-23117.693,6983.288][7256.471,12654.977,-24501.691,-23083.563,-26091.123,-26348.057,-23094.648,6972.805][7250.190,12652.227,-24507.078,-23087.316,-26091.793,-26346.871,-23100.594,6941.312][7258.147,12650.662,-24514.207,-23080.254,-26113.564,-26371.928,-23117.715,6967.955][7306.315,12666.442,-24499.545,-23063.445,-26097.023,-26352.750,-23095.117,7063.509][7309.378,12658.865,-24502.674,-23081.215,-26093.471,-26348.213,-23091.496,7056.065][7271.424,12655.825,-24502.496,-23080.813,-26089.625,-26353.980,-23112.619,6989.547][7224.575,12653.635,-24502.205,-23059.869,-26096.488,-26350.492,-23101.779,6940.753][7279.449,12656.652,-24504.797,-23059.803,-26095.146,-26347.543,-23097.889,7005.685][7292.323,12664.833,-24494.047,-23071.180,-26082.607,-26332.521,-23078.689,7025.376][7293.463,12655.558,-24503.232,-23083.920,-26085.961,-26330.936,-23086.938,6990.709][7289.597,12651.177,-24510.006,-23072.230,-26097.449,-26337.373,-23100.348,7003.315][7310.361,12661.458,-24498.227,-23052.852,-26094.945,-26335.785,-23103.500,7041.246][7302.806,12649.835,-24500.596,-23073.771,-26100.758,-26344.928,-23099.900,6997.705][7276.968,12632.267,-24520.801,-23100.729,-26099.059,-26361.848,-23099.834,6963.104][7228.487,12638.302,-24508.955,-23076.543,-26101.002,-26364.418,-23105.646,6953.694][7289.865,12656.563,-24495.455,-23050.102,-26082.451,-26338.938,-23085.439,7065.811][7313.423,12652.405,-24504.998,-23075.248,-26097.561,-26350.068,-23099.813,7034.697][7239.037,12641.767,-24505.111,-23089.686,-26103.908,-26359.232,-23113.156,6941.043][7268.094,12649.030,-24496.662,-23067.604,-26094.096,-26343.967,-23087.920,7001.', b'259][7320.844,12664.744,-24487.811,-23043.865,-26083.121,-26323.492,-23078.869,7022.940][7292.033,12648.226,-24498.539,-23061.613,-26084.574,-26329.215,-23081.305,7015.653][7276.342,12649.455,-24492.146,-23072.186,-26081.938,-26331.963,-23084.256,7001.930][7297.777,12657.547,-24493.131,-23071.783,-26096.176,-26351.611,-23108.373,6981.075][7294.111,12649.053,-24500.059,-23053.945,-26091.549,-26341.775,-23081.662,7037.402][7285.752,12646.482,-24493.846,-23051.846,-26082.785,-26330.689,-23070.508,7043.168][7279.717,12642.124,-24493.555,-23068.988,-26081.668,-26328.008,-23073.996,6998.577][7314.854,12652.361,-24487.922,-23063.848,-26082.383,-26328.254,-23081.170,7004.165][7336.558,12656.987,-24490.850,-23053.230,-26106.791,-26338.109,-23084.010,7061.117][7302.784,12643.935,-24501.133,-23061.232,-26084.820,-26327.314,-23090.447,7036.620][7294.246,12619.705,-24520.221,-23088.926,-26084.082,-26304.135,-23087.652,6990.016][7268.228,12630.345,-24502.629,-23071.672,-26089.604,-26344.928,-23095.498,6987.580][7302.113,12650.528,-24488.146,-23048.537,-26085.691,-26358.316,-23088.838,7045.381][7285.909,12663.962,-24472.119,-23035.014,-26080.461,-26343.811,-23084.590,6992.676][7268.250,12652.070,-24478.064,-23054.461,-26080.104,-26345.553,-23094.447,6978.751][7287.540,12645.700,-24487.273,-23070.486,-26081.490,-26332.275,-23071.828,6983.311][7301.801,12639.330,-24501.133,-23069.057,-26098.209,-26350.225,-23087.475,6984.719][7294.514,12649.611,-24485.709,-23044.223,-26091.078,-26348.480,-23094.760,7017.017][7305.623,12657.145,-24474.914,-23047.420,-26069.441,-26307.467,-23069.949,7022.829][7285.193,12634.681,-24495.365,-23077.729,-26088.777,-26338.400,-23089.910,6975.733][7303.142,12639.017,-24498.740,-23068.988,-26095.906,-26340.076,-23088.949,7005.685][7261.322,12615.190,-24521.674,-23074.375,-26108.445,-26350.828,-23121.738,6948.241][7306.718,12629.585,-24501.467,-23066.039,-26073.510,-26302.996,-23092.861,7029.087][7354.483,12648.718,-24480.568,-23060.719,-26059.875,-26305.633,-23055.020,7062.011][7279.784,12644.001,-24484.234,-23054.326,-26076.639,-26358.115,-23075.225,7020.660][7279.940,12626.701,-24506.564,-23066.418,-26113.900,-26374.654,-23104.193,7052.109][7309.579,12657.010,-24477.977,-23051.600,-26094.252,-26345.240,-23087.139,7015.341][7277.281,12644.091,-24478.803,-23060.674,-26061.932,-26306.885,-23068.898,6958.187][7295.073,12651.399,-24471.113,-23044.535,-26057.082,-26316.295,-23059.734,7030.383][7320.040,12667.963,-24465.391,-23029.807,-26076.996,-26330.332,-23075.135,7053.830][7283.405,12641.431,-24486.648,-23051.891,-26086.988,-26322.979,-23089.283,6994.889][7270.061,12630.926,-24490.158,-23069.660,-26084.217,-26338.602,-23090.066,6973.386][7317.022,12641.565,-24483.787,-23063.223,-26080.193,-26344.615,-23088.234,7019.654][7321.649,12642.169,-24489.844,-23053.744,-26091.369,-26350.648,-23090.715,7019.990][7341.050,12636.871,-24498.875,-23060.896,-26107.775,-26348.883,-23093.910,7024.840][7270.150,12634.233,-24484.727,-23058.572,-26071.945,-26332.119,-23080.500,6988.049][7289.261,12645.566,-24477.037,-23058.818,-26071.164,-26329.617,-23087.004,6996.521][7326.812,12646.460,-24480.703,-23046.078,-26070.381,-26286.008,-23074.129,7037.916][7269.927,12625.562,-24496.461,-23050.102,-26076.729,-26322.979,-23088.881,7007.518][7289.373,12640.224,-24483.742,-23054.215,-26073.398,-26354.227,-23071.559,7019.431][7329.875,12648.605,-24477.887,-23064.965,-26079.367,-26349.129,-23085.262,7030.831][7305.645,12613.111,-24519.662,-23095.230,-26127.154,-26391.799,-23134.367,7010.826][7292.815,12642.794,-24481.061,-23040.199,-26080.551,-26321.459,-23069.682,7039.816][7309.847,12669.281,-24452.674,-23027.840,-26047.158,-26292.379,-23044.201,7021.554][7258.058,12637.296,-24480.055,-23064.965,-26072.549,-26345.754,-23084.434,6964.468][7302.874,12638.771,-24482.133,-23053.342,-26075.723,-26333.975,-23079.875,6985.725][7301.152,12639.554,-24486.178,-23045.297,-26086.520,-26333.014,-23085.977,7014.402][7347.107,12652.853,-24474.332,-23047.420,-26077.041,-26323.469,-23066.373,7084.944][7284.992,12635.016,-24479.943,-23058.930,-26065.396,-26303.']
INDEX_b'4.023338317871094'___FLEX_[b'299,403,385,370,402\n301,403,385,369,403\n300,403,384,369,404\n300,403,385,369,403\n300,403,385,369,403\n301,404,385,369,403\n300,403,384,369,403\n301,403,385,369,403\n301,404,385,369,404\n301,404,384,370,403\n301,403,385,369,403\n301,403,385,369,403\n301,403,385,369,404\n302,403,385,369,403\n301,404,385,369,404\n302,403,385,369,403\n302,404,385,369,404\n302,403,385,369,404\n301,403,386,369,403\n302,403,384,369,404\n302,403,385,369,404\n302,403,385,369,404\n302,404,385,369,404\n302,403,386,370,403\n302,403,386,369,403\n303,403,385,369,404\n301,403,386,369,403\n302,403,386,369,404\n301,403,385,369,404\n303,404,385,369,404\n303,403,386,369,404\n303,403,386,369,404\n302,404,386,369,404\n303,404,385,370,404\n303,402,385,369,404\n304,404,386,370,404\n303,404,386,369,404\n304,404,385,370,403\n304,404,385,370,404\n304,404,385,370,404\n302,404,386,369,404\n303,403,386,370,403\n304,404,386,370,404\n304,404,386,370,404\n304,404,385,369,404\n304,403,385,369,404\n304,404,386,370,404\n304,403,386,370,404\n304,403,386,370,404\n304,404,387,369,404\n', b'304,404,385,370,404\n304,404,386,370,404\n304,404,387,370,404\n304,404,386,370,404\n303,403,386,370,404\n304,404,385,369,403\n304,403,386,369,405\n305,404,386,370,404\n304,402,386,369,405\n305,403,386,369,404\n304,403,386,370,404\n305,404,387,370,404\n304,403,386,370,404\n304,403,386,370,405\n304,403,386,371,404\n305,404,386,370,404\n305,403,386,369,403\n305,403,385,369,404\n305,403,386,370,405\n305,403,386,370,404\n304,404,386,369,404\n305,403,385,370,404\n304,404,386,370,405\n305,403,386,370,404\n304,403,386,369,404\n305,403,385,370,404\n304,404,386,369,404\n304,404,386,370,404\n304,404,385,369,404\n304,405,386,369,404\n304,404,386,370,405\n304,404,386,370,404\n304,403,385,370,404\n305,404,386,370,405\n304,404,386,370,404\n305,404,386,370,405\n304,404,386,370,405\n304,404,385,370,404\n304,403,385,369,404\n304,404,386,370,405\n304,404,385,370,404\n304,403,386,370,404\n304,404,385,370,404\n305,404,386,371,404\n304,401,385,370,404\n305,404,386,370,405\n304,404,386,370,404\n304,403,386,370,404\n304,403,386,370,404\n304,403,386,370,405\n', b'303,404,386,370,405\n302,404,386,370,405\n303,403,386,370,403\n303,403,386,370,405\n302,404,386,370,405\n303,404,385,370,405\n302,403,386,370,405\n302,404,386,370,404\n301,403,386,370,405\n301,403,386,370,405\n301,404,386,370,405\n301,404,387,370,405\n300,404,386,370,406\n300,404,386,370,405\n299,404,386,370,404\n299,404,386,370,405\n299,403,386,370,405\n298,404,386,370,406\n298,404,386,369,406\n298,403,386,369,405\n297,404,386,370,405\n297,404,386,370,405\n297,404,387,370,405\n297,403,387,370,405\n296,404,385,370,405\n296,403,386,370,405\n296,403,386,370,405\n296,404,386,370,405\n294,404,385,370,405\n294,404,386,370,406\n294,404,387,369,405\n294,404,386,371,405\n292,404,387,370,406\n294,404,386,371,407\n292,404,386,370,405\n292,404,386,370,406\n292,404,386,370,404\n292,404,386,370,406\n291,404,385,370,406\n291,404,386,370,406\n290,404,387,370,406\n290,404,386,370,406\n290,405,385,370,405\n289,404,386,370,406\n288,405,386,370,406\n288,405,386,370,406\n286,404,386,370,406\n285,404,386,370,406\n284,405,386,370,406\n282,405,387,370,406\n', b'281,404,386,370,405\n280,405,386,370,406\n279,405,386,369,406\n279,406,386,370,406\n278,405,387,371,406\n277,405,386,370,406\n276,405,386,371,406\n276,404,386,370,406\n275,405,386,370,406\n275,405,386,370,406\n275,405,387,371,406\n274,405,386,370,406\n273,405,387,370,406\n274,405,386,370,405\n273,405,387,371,406\n272,405,385,370,406\n272,405,387,370,407\n272,405,386,370,407\n271,406,386,370,406\n271,405,386,369,407\n270,406,386,370,406\n271,405,387,370,407\n269,406,387,370,407\n269,405,386,370,407\n268,405,386,369,406\n268,406,386,370,407\n267,405,386,370,406\n267,405,386,370,407\n266,406,385,369,407\n266,406,386,370,406\n265,405,387,370,406\n264,406,386,370,407\n264,406,387,370,407\n263,405,386,370,407\n264,405,386,370,406\n263,405,387,370,407\n262,406,386,370,406\n262,405,386,370,406\n261,405,386,370,406\n261,405,386,371,407\n260,405,386,370,406\n260,405,386,370,406\n258,405,386,370,406\n259,405,386,370,407\n258,406,386,371,407\n257,405,386,371,407\n256,406,386,370,406\n256,405,386,370,406\n256,406,386,371,407\n254,405,386,369,407\n', b'253,406,385,370,407\n254,405,386,370,407\n253,405,386,370,407\n253,406,386,370,407\n252,405,385,370,407\n251,406,386,370,406\n251,406,386,370,407\n251,406,385,370,407\n250,406,387,371,407\n250,406,387,370,407\n249,405,387,370,406\n249,406,386,370,407\n248,405,387,370,406\n249,405,386,370,407\n248,405,386,370,407\n247,406,386,370,407\n247,405,386,370,406\n247,406,386,370,407\n246,406,387,371,407\n246,405,386,371,406\n246,406,386,371,408\n245,406,386,369,407\n244,405,386,370,407\n244,406,386,370,407\n244,406,386,370,407\n243,405,386,370,407\n242,407,386,370,407\n242,405,385,370,407\n241,405,386,370,407\n241,406,386,370,407\n240,406,386,370,408\n241,405,386,370,407\n239,405,386,370,407\n240,406,385,370,407\n238,406,387,370,407\n239,406,386,371,408\n238,406,387,370,407\n238,406,386,371,408\n238,406,386,370,407\n238,406,386,370,407\n238,406,386,370,407\n237,406,387,370,408\n236,406,386,369,408\n236,405,386,370,407\n236,406,386,370,408\n235,405,386,370,407\n235,406,385,370,407\n235,406,386,371,407\n234,406,386,370,407\n234,406,386,371,407\n']___EMG_[b'309,-23069.502,6999.158][7286.534,12640.135,-24480.881,-23056.561,-26078.494,-26333.975,-23079.830,6996.789][7311.144,12647.086,-24478.781,-23039.148,-26082.496,-26343.609,-23077.504,7059.329][7300.482,12635.978,-24486.648,-23053.521,-26084.754,-26340.010,-23082.803,7025.443][7307.947,12630.255,-24484.211,-23060.875,-26066.537,-26311.488,-23061.389,7009.127][7332.690,12639.330,-24478.646,-23051.375,-26058.289,-26306.750,-23070.307,7050.276][7302.672,12647.197,-24473.506,-23034.521,-26080.395,-26350.873,-23104.281,7026.137][7236.779,12615.392,-24500.215,-23060.830,-26096.242,-26339.430,-23098.336,6978.438][7286.400,12634.681,-24477.461,-23050.885,-26056.701,-26294.391,-23047.643,7016.235][7327.527,12662.151,-24459.379,-23040.826,-26053.797,-26291.865,-23051.219,7017.911][7316.374,12652.853,-24473.551,-23037.070,-26072.438,-26320.943,-23070.576,7019.364][7300.393,12638.257,-24485.375,-23046.480,-26083.211,-26370.877,-23097.756,7019.543][7286.602,12634.569,-24480.076,-23058.104,-26074.918,-26338.736,-23063.959,7012.479][7285.708,12630.144,-24486.939,-23069.258,-26082.563,-26340.256,-23098.113,6945.313][7294.894,12629.764,-24493.465,-23062.551,-26103.238,-26356.662,-23104.215,6989.636][7295.766,12624.689,-24496.305,-23056.137,-26095.930,-26352.236,-23091.273,7054.322][7330.902,12648.449,-24470.018,-23046.346,-26065.129,-26322.063,-23059.422,7084.966][7319.168,12646.147,-24470.398,-23055.422,-26070.717,-26331.740,-23074.197,7000.767][7344.604,12635.194,-24485.262,-23054.014,-26077.936,-26329.705,-23084.814,7027.075][7271.872,12643.688,-24474.779,-23032.912,-26067.252,-26292.043,-23066.240,7023.767][7294.447,12642.571,-24471.627,-23041.295,-26060.523,-26293.072,-23046.994,7044.353][7293.553,12646.371,-24462.061,-23041.316,-26040.607,-26284.443,-23045.340,7022.694][7307.813,12643.845,-24471.158,-23043.441,-26065.688,-26324.072,-23068.697,7018.470][7322.565,12625.024,-24494.717,-23054.014,-26096.510,-26352.906,-23091.295,7012.815][7296.682,12636.021,-24472.924,-23040.512,-26066.424,-26336.992,-23072.275,7021.935][7279.203,12640.783,-24464.811,-23046.279,-26056.299,-26330.734,-23061.010,6998.085][7319.011,12656.451,-24455.064,-23033.875,-26055.965,-26311.959,-23052.627,7038.765][7308.953,12642.906,-24474.623,-23034.053,-26071.654,-26318.016,-23070.576,7046.141][7298.694,12609.691,-24508.150,-23070.150,-26088.195,-26323.514,-23090.045,7021.331][7313.647,12635.999,-24473.191,-23049.633,-26052.320,-26325.236,-23059.602,6998.487][7355.042,12660.922,-24448.539,-23028.711,-26051.785,-26323.961,-23050.996,7068.761][7322.208,12658.888,-24454.908,-23018.809,-26061.955,-26334.221,-23089.775,7029.534][7268.765,12638.860,-24471.516,-23029.582,-26067.699,-26338.244,-23081.506,6986.574][7300.996,12641.811,-24466.375,-23045.967,-26059.496,-26305.141,-23049.543,7004.679][7308.014,12638.525,-24469.146,-23046.883,-26048.855,-26271.994,-23050.057,7021.912][7306.070,12633.607,-24479.986,-23043.172,-26073.912,-26325.570,-23074.555,7007.518][7346.906,12631.484,-24488.279,-23048.313,-26084.641,-26349.555,-23081.818,7049.427][7319.771,12630.277,-24483.340,-23059.824,-26071.074,-26323.447,-23063.670,7039.480][7277.817,12631.819,-24473.594,-23055.398,-26068.234,-26337.461,-23068.541,6988.742][7272.162,12628.266,-24478.982,-23044.559,-26078.137,-26334.689,-23087.229,7005.506][7294.067,12637.698,-24473.059,-23030.566,-26073.779,-26311.332,-23083.092,7054.970][7317.715,12638.771,-24467.023,-23036.713,-26049.482,-26309.611,-23061.902,7038.408][7356.003,12659.781,-24454.305,-23039.484,-26051.113,-26305.699,-23047.352,7035.524][7342.905,12648.137,-24465.324,-23034.836,-26073.287,-26321.748,-23065.234,7042.230][7343.666,12649.500,-24464.006,-23022.877,-26062.938,-26333.662,-23077.371,7051.394][7296.816,12646.527,-24460.094,-23034.410,-26057.328,-26319.045,-23070.195,7022.292][7286.355,12622.566,-24479.541,-23061.859,-26068.883,-26321.459,-23066.643,6990.575][7312.552,12630.725,-24474.578,-23046.838,-26065.285,-26309.879,-23057.164,7010.222][7302.605,12645.901,-24464.141,-23025.381,-26065.910,-26314.574,-23084.902,6989.211][7313.178,12652.808,-24455.848,-23024.26', b'4,-26055.025,-26314.752,-23066.553,7043.705][7306.852,12646.259,-24454.127,-23036.311,-26048.768,-26308.270,-23063.043,7040.754][7330.791,12634.346,-24470.957,-23042.748,-26054.779,-26277.582,-23047.264,7066.258][7308.864,12624.936,-24482.781,-23039.217,-26071.432,-26309.836,-23071.402,7026.517][7279.807,12640.783,-24460.318,-23023.949,-26057.977,-26330.533,-23068.697,6990.597][7297.643,12643.756,-24456.340,-23037.920,-26053.840,-26319.760,-23057.791,7002.712][7308.998,12636.089,-24468.969,-23047.330,-26059.227,-26323.492,-23070.508,7016.637][7347.152,12651.959,-24462.799,-23027.861,-26067.588,-26318.082,-23066.775,7055.686][7365.101,12664.006,-24450.617,-23015.904,-26063.004,-26323.402,-23066.172,7081.435][7359.222,12635.239,-24466.195,-23042.748,-26056.031,-26316.563,-23053.008,7069.387][7318.989,12632.400,-24467.201,-23048.715,-26063.676,-26321.994,-23064.361,6992.430][7283.427,12645.610,-24462.016,-23030.879,-26070.447,-26332.746,-23084.121,6961.764][7283.740,12634.658,-24473.684,-23039.775,-26088.396,-26352.191,-23103.566,7019.319][7303.208,12636.916,-24464.832,-23042.949,-26063.787,-26316.316,-23059.422,7073.411][7294.782,12640.157,-24457.926,-23036.848,-26041.078,-26282.768,-23038.100,7055.797][7327.483,12653.725,-24452.740,-23021.090,-26046.309,-26303.621,-23054.863,7049.427][7316.105,12639.710,-24466.711,-23029.314,-26075.299,-26345.486,-23084.770,7032.395][7317.693,12629.987,-24471.092,-23049.408,-26076.080,-26340.793,-23087.094,7023.678][7341.564,12652.518,-24450.818,-23038.301,-26052.098,-26301.543,-23047.352,7050.254][7281.818,12633.139,-24468.768,-23042.055,-26071.342,-26326.264,-23078.287,6968.424][7330.254,12652.785,-24459.133,-23024.934,-26072.012,-26329.215,-23077.594,7039.883][7361.100,12657.524,-24453.277,-23028.375,-26055.896,-26307.756,-23046.727,7083.379][7324.800,12631.306,-24466.240,-23048.760,-26056.031,-26304.449,-23058.617,7026.159][7343.777,12639.866,-24461.570,-23037.295,-26056.568,-26292.646,-23060.271,7036.888][7338.502,12658.440,-24451.557,-23015.344,-26061.820,-26321.346,-23065.658,7069.208][7283.025,12634.681,-24468.723,-23040.334,-26075.678,-26340.881,-23078.332,7005.707][7291.273,12645.544,-24452.449,-23037.361,-26045.951,-26300.715,-23054.125,6998.756][7300.750,12642.974,-24458.619,-23040.021,-26056.209,-26314.686,-23063.512,6987.021][7324.800,12650.774,-24456.920,-23021.291,-26063.943,-26319.111,-23059.244,7067.264][7351.354,12660.542,-24446.258,-23012.416,-26049.213,-26310.260,-23051.354,7106.402][7297.084,12616.397,-24480.547,-23061.232,-26074.471,-26334.488,-23079.963,7006.668][7308.395,12629.384,-24473.863,-23057.434,-26074.225,-26332.656,-23083.809,7009.932][7336.267,12661.279,-24447.287,-23016.172,-26060.703,-26320.967,-23064.004,7054.590][7311.188,12653.971,-24451.064,-23018.652,-26064.570,-26321.033,-23060.674,7048.756][7313.960,12642.190,-24460.295,-23038.881,-26052.611,-26295.150,-23044.291,7025.689][7347.667,12627.193,-24479.383,-23058.305,-26056.188,-26301.633,-23061.188,7046.856][7357.367,12633.139,-24479.518,-23048.023,-26078.428,-26343.586,-23080.389,7039.302][7312.842,12654.819,-24450.551,-23012.975,-26058.244,-26314.664,-23056.428,7016.101][7269.212,12646.885,-24449.545,-23027.393,-26048.453,-26309.857,-23055.891,7005.685][7317.715,12646.080,-24454.127,-23041.004,-26051.383,-26311.533,-23052.293,7052.109][7335.038,12637.005,-24467.963,-23039.238,-26067.721,-26323.045,-23063.893,7049.785][7344.783,12650.282,-24458.193,-23021.895,-26064.168,-26319.850,-23066.396,7053.428][7328.444,12652.473,-24448.158,-23023.615,-26050.488,-26306.705,-23047.910,7060.603][7297.643,12635.999,-24457.568,-23043.574,-26054.443,-26308.314,-23050.660,7013.597][7328.578,12642.884,-24459.021,-23034.791,-26060.367,-26315.467,-23053.053,7062.927][7347.577,12645.029,-24466.129,-23029.092,-26069.486,-26326.354,-23064.229,7064.760][7334.479,12624.913,-24476.857,-23048.313,-26075.410,-26331.227,-23072.408,7030.271][7357.814,12630.813,-24469.258,-23055.309,-26064.436,-26298.592,-23058.014,7019.855][7352.673,12662.375,-24442.123,-23024.643,-26049.684,-26302.146,-23049.432,7036.888][7317.804,12664.811,']
