INDEX_b'0.40192699432373047'___FLEX_[]___EMG_[b'[1310.997,4803.435,-29393.930,-30991.676,-24689.244,-27415.018,-32888.133,920.646][1300.938,4796.416,-29396.521,-31002.227,-24710.613,-27413.787,-32889.160,900.216][1318.105,4806.698,-29399.271,-30993.285,-24712.938,-27419.621,-32895.441,938.259][1321.055,4809.514,-29398.287,-30981.842,-24710.256,-27421.432,-32907.152,965.908][1304.135,4799.679,-29395.426,-30989.688,-24698.922,-27403.662,-32874.969,926.010][1303.598,4798.808,-29392.141,-30996.326,-24693.691,-27400.377,-32878.633,905.000][1314.439,4806.094,-29395.225,-30989.688,-24701.762,-27408.959,-32891.641,928.335][1328.364,4808.620,-29402.691,-30986.244,-24712.736,-27416.516,-32896.090,967.965][1315.758,4801.646,-29397.104,-30989.262,-24702.410,-27406.680,-32890.168,939.041][1308.516,4795.768,-29394.689,-30998.828,-24694.586,-27398.230,-32883.305,906.900][1318.708,4803.188,-29396.098,-30994.471,-24700.084,-27405.674,-32891.508,921.249][1330.443,4811.749,-29397.104,-30981.596,-24706.924,-27414.727,-32899.285,960.186][1318.283,4803.591,-29395.494,-30984.746,-24699.504,-27407.395,-32894.770,945.345][1308.829,4797.556,-29392.051,-30995.588,-24690.295,-27396.465,-32881.695,908.867][1315.087,4800.752,-29394.018,-30993.867,-24696.754,-27405.518,-32890.902,920.087][1326.867,4806.743,-29400.523,-30985.283,-24702.029,-27412.760,-32899.352,954.621][1321.994,4804.910,-29398.020,-30984.031,-24701.314,-27409.563,-32893.363,954.330][1307.152,4796.081,-29393.191,-30992.816,-24687.701,-27401.025,-32885.984,914.432][1309.723,4800.104,-29390.264,-30990.178,-24692.127,-27398.744,-32882.254,917.003][1322.128,4805.468,-29398.533,-30984.881,-24706.545,-27410.592,-32888.914,955.649][1321.525,4802.496,-29403.406,-30987.877,-24698.633,-27419.711,-32897.879,961.349][1309.678,4798.763,-29393.885,-30994.314,-24706.031,-27407.641,-32887.594,918.858][1311.690,4799.143,-29393.750,-30998.471,-24710.658,-27405.451,-32881.738,916.667][1320.116,4804.530,-29398.891,-30988.100,-24712.646,-27417.096,-32892.848,954.308][1322.754,4807.860,-29398.064,-30980.881,-24712.691,-27420.314,-32894.277,966.378][1313.947,4802.138,-29392.477,-30989.932,-24704.936,-27411.820,-32884.824,929.766][1308.672,4798.785,-29390.621,-30995.990,-24701.605,-27411.328,-32884.242,907.101][1323.424,4805.692,-29395.203,-30989.643,-24711.328,-27422.125,-32894.637,948.474][1325.928,4809.849,-29395.873,-30980.434,-24714.748,-27427.578,-32899.063,961.930][1310.639,4799.165,-29393.482,-30988.100,-24704.242,-27417.117,-32881.984,939.220][1304.090,4792.527,-29392.633,-30996.885,-24696.531,-27411.195,-32877.047,913.091][1317.322,4797.958,-29397.146,-30992.793,-24703.617,-27422.170,-32886.523,939.734][1328.006,4804.373,-29400.881,-30986.133,-24714.971,-27433.592,-32899.820,966.109][1315.020,4797.221,-29396.141,-30989.150,-24707.260,-27429.502,-32898.883,945.389][1299.508,4788.570,-29394.330,-30998.918,-24699.414,-27423.846,-32893.141,903.636][1304.336,4788.392,-29401.104,-30999.008,-24707.037,-27427.221,-32886.902,924.267][1330.331,4810.632,-29391.135,-30976.633,-24706.254,-27425.500,-32898.281,972.010][1314.282,4800.774,-29394.711,-30984.010,-24699.615,-27421.275,-32874.855,949.681][1300.827,4791.789,-29391.850,-30996.080,-24685.533,-27414.012,-32872.688,912.979][1309.857,4796.259,-29392.275,-30995.811,-24709.986,-27419.086,-32878.008,926.346][1324.542,4804.798,-29395.426,-30984.680,-24716.379,-27435.916,-32899.734,957.973][1319.826,4803.032,-29392.945,-30981.238,-24703.996,-27429.389,-32894.750,953.570][1305.074,4793.019,-29391.471,-30994.672,-24703.146,-27417.609,-32878.387,914.924][1312.182,4793.979,-29394.443,-30999.879,-24705.852,-27420.494,-32880.441,917.137][1321.100,4800.193,-29398.086,-30987.139,-24710.613,-27430.551,-32894.031,953.034][1314.417,4800.372,-29397.393,-30983.539,-24710.725,-27433.547,-32897.879,941.523][1305.319,4792.191,-29391.805,-30991.072,-24697.648,-27416.135,-32873.246,931.978][1303.934,4791.946,-29389.994,-30993.867,-24691.523,-27415.955,-32881.629,912.398][1320.139,4802.742,-29394.264,-30986.602,-24706.143,-27426.863,-32888.891,945.322][1326.665,4804.373,-29398.936,-30984.791,-24716.648,-27429.502,-32887.148,973.', b'173][1307.443,4797.265,-29390.063,-30986.803,-24698.453,-27414.637,-32881.227,927.441][1306.146,4794.762,-29389.145,-30993.889,-24694.654,-27410.367,-32879.059,904.888][1323.246,4801.378,-29396.209,-30991.072,-24708.332,-27421.813,-32887.953,941.388][1327.984,4807.502,-29397.662,-30982.869,-24715.865,-27427.893,-32901.922,955.984][1313.098,4798.204,-29395.404,-30988.211,-24705.203,-27410.613,-32886.254,935.175][1302.995,4792.952,-29393.258,-30997.219,-24698.633,-27398.723,-32873.691,905.492][1315.042,4799.836,-29395.828,-30991.900,-24707.953,-27406.770,-32885.449,930.056][1329.281,4811.816,-29394.576,-30980.164,-24718.168,-27416.559,-32898.457,965.953][1312.673,4799.277,-29398.354,-30987.541,-24703.975,-27399.080,-32884.242,941.299][1300.179,4793.063,-29392.119,-30993.195,-24685.131,-27385.268,-32876.910,899.412][1314.685,4799.434,-29395.248,-30994.090,-24715.195,-27388.418,-32878.766,927.687][1328.431,4809.514,-29396.656,-30982.355,-24721.676,-27398.768,-32896.625,963.003][1320.563,4809.291,-29389.570,-30977.908,-24710.902,-27388.619,-32897.074,938.214][1307.644,4796.327,-29391.961,-30992.861,-24698.029,-27370.760,-32871.234,913.829][1317.367,4799.054,-29395.270,-30996.213,-24708.109,-27371.297,-32872.082,933.543][1325.682,4806.295,-29399.428,-30986.424,-24721.006,-27382.854,-32892.289,961.751][1324.922,4807.480,-29396.432,-30981.730,-24715.709,-27377.064,-32886.836,961.438][1307.957,4798.137,-29392.275,-30991.699,-24706.434,-27366.066,-32881.113,908.710][1312.293,4799.366,-29392.855,-30993.576,-24699.035,-27361.127,-32879.617,913.426][1325.436,4807.838,-29396.387,-30983.025,-24711.730,-27371.006,-32894.031,958.935][1321.525,4805.424,-29397.014,-30979.158,-24713.229,-27368.303,-32885.984,959.471][1310.505,4796.528,-29392.633,-30987.541,-24699.861,-27352.857,-32867.500,927.776][1308.829,4794.449,-29393.035,-30994.090,-24697.225,-27351.449,-32870.543,914.656][1320.765,4803.613,-29394.979,-30984.545,-24705.359,-27361.082,-32885.496,941.143][1326.934,4812.800,-29389.994,-30971.939,-24705.986,-27364.055,-32893.629,957.012][1305.409,4798.092,-29393.684,-30986.313,-24696.240,-27352.432,-32881.070,915.147][1303.464,4788.951,-29399.227,-31000.840,-24700.264,-27348.967,-32866.203,915.147][1318.306,4796.505,-29401.953,-30995.967,-24714.033,-27366.379,-32880.555,942.618][1320.474,4805.826,-29396.254,-30977.326,-24712.424,-27375.029,-32889.227,957.392][1312.673,4802.965,-29390.441,-30982.020,-24694.496,-27369.420,-32880.758,929.296][1304.649,4791.946,-29392.564,-30994.201,-24690.361,-27359.830,-32866.922,913.583][1312.718,4797.109,-29394.957,-30989.910,-24712.424,-27366.604,-32877.785,926.010][1321.301,4803.770,-29398.957,-30982.355,-24719.262,-27379.232,-32896.469,948.675][1318.999,4802.250,-29395.359,-30984.568,-24712.893,-27368.771,-32883.012,937.499][1305.364,4791.387,-29393.729,-30993.777,-24703.348,-27356.410,-32872.152,907.168][1309.991,4794.427,-29396.543,-30993.063,-24710.211,-27363.652,-32878.566,919.260][1322.731,4802.965,-29399.852,-30983.227,-24721.408,-27376.014,-32887.328,961.080][1317.613,4803.524,-29393.861,-30979.092,-24715.463,-27371.654,-32884.801,943.780][1301.810,4791.454,-29391.045,-30989.955,-24705.248,-27360.545,-32876.219,905.268][1305.096,4788.995,-29396.521,-30994.537,-24706.389,-27362.803,-32876.934,912.801][1320.563,4796.438,-29403.406,-30987.094,-24714.301,-27375.879,-32883.773,953.212][1319.625,4800.484,-29397.260,-30980.098,-24717.207,-27376.416,-32888.289,946.887][1303.688,4794.918,-29386.643,-30982.623,-24701.291,-27361.238,-32879.637,902.139][1309.231,4793.734,-29391.850,-30993.174,-24706.723,-27361.529,-32872.957,909.291][1317.658,4793.801,-29404.166,-30990.178,-24719.598,-27374.582,-32882.855,952.922][1318.887,4799.858,-29400.680,-30982.691,-24721.633,-27380.059,-32889.227,952.877][1308.538,4794.359,-29393.951,-30989.889,-24709.941,-27370.246,-32878.789,915.036][1309.969,4794.292,-29388.340,-30988.838,-24698.475,-27362.646,-32870.609,905.983][1316.339,4796.707,-29395.381,-30983.473,-24706.545,-27373.555,-32878.543,937.566][1324.989,4800.797,-29399.674,-30979.963,-24718.100,-27385.781,-32886.902,']
INDEX_b'0.8028538227081299'___FLEX_[]___EMG_[b'962.935][1314.864,4796.707,-29392.900,-30984.166,-24706.924,-27377.020,-32881.492,930.481][1305.766,4790.314,-29392.900,-30992.838,-24699.594,-27369.531,-32871.523,901.245][1314.975,4793.533,-29398.713,-30988.928,-24707.572,-27379.836,-32881.762,929.810][1326.732,4804.060,-29399.338,-30979.762,-24715.150,-27390.900,-32890.570,959.739][1312.517,4795.209,-29397.482,-30985.797,-24704.756,-27383.523,-32881.563,933.699][1305.319,4790.225,-29391.246,-30989.486,-24687.902,-27374.023,-32877.469,905.961][1312.293,4793.823,-29394.777,-30987.318,-24692.619,-27381.646,-32876.910,925.832][1324.810,4804.418,-29395.828,-30975.939,-24723.219,-27396.576,-32895.598,954.241][1321.703,4804.351,-29390.955,-30976.008,-24711.529,-27389.424,-32887.551,940.293][1302.078,4786.827,-29396.857,-30994.402,-24705.584,-27380.484,-32864.598,904.866][1309.544,4790.984,-29397.236,-30992.168,-24707.930,-27386.430,-32873.359,918.076][1328.543,4801.848,-29399.785,-30980.746,-24716.178,-27397.225,-32882.855,964.053][1323.626,4802.518,-29394.129,-30976.164,-24710.211,-27392.309,-32879.953,952.207][1311.958,4795.947,-29388.207,-30984.926,-24697.828,-27382.539,-32875.078,910.789][1311.645,4793.868,-29395.002,-30991.967,-24695.100,-27383.389,-32873.602,913.113][1325.570,4803.524,-29397.885,-30981.260,-24709.473,-27394.678,-32887.773,948.362][1326.867,4805.491,-29394.934,-30976.186,-24711.148,-27393.492,-32886.301,957.437][1309.432,4794.918,-29390.777,-30985.307,-24696.979,-27382.160,-32879.414,910.632][1314.417,4793.711,-29393.816,-30994.559,-24698.721,-27383.590,-32875.637,911.571][1323.067,4799.545,-29398.533,-30984.859,-24705.584,-27394.387,-32884.801,944.518][1320.005,4804.507,-29393.996,-30973.168,-24702.186,-27398.164,-32896.270,946.641][1312.718,4796.841,-29392.297,-30984.859,-24691.680,-27386.229,-32877.582,927.843][1305.297,4790.023,-29393.393,-30993.643,-24687.680,-27382.875,-32871.457,909.358][1319.714,4800.618,-29394.443,-30984.680,-24695.703,-27392.822,-32882.855,937.812][1327.336,4806.005,-29397.707,-30979.338,-24694.184,-27402.566,-32894.188,958.555][1310.214,4798.204,-29390.912,-30981.506,-24682.182,-27387.256,-32880.578,928.000][1302.347,4793.846,-29386.441,-30986.826,-24689.154,-27377.377,-32869.668,905.603][1320.318,4800.216,-29393.527,-30987.094,-24692.932,-27390.520,-32881.227,938.706][1327.850,4805.424,-29398.398,-30980.076,-24701.582,-27401.158,-32890.523,967.786][1316.406,4802.697,-29391.918,-30981.238,-24691.234,-27393.559,-32882.789,938.974][1303.822,4794.471,-29388.877,-30990.693,-24681.488,-27386.563,-32874.273,908.509][1313.768,4799.567,-29391.783,-30988.367,-24685.578,-27393.984,-32881.918,924.580][1326.509,4809.224,-29393.795,-30975.896,-24693.334,-27404.131,-32890.410,966.244][1316.764,4807.525,-29388.051,-30973.125,-24682.404,-27395.504,-32881.316,948.586][1301.654,4794.069,-29389.234,-30987.451,-24674.828,-27388.844,-32874.477,907.324][1312.070,4797.667,-29390.711,-30988.234,-24685.980,-27393.492,-32878.746,920.311][1322.977,4808.508,-29390.465,-30973.795,-24694.520,-27406.188,-32895.555,955.850][1321.927,4807.994,-29391.783,-30976.074,-24691.658,-27405.785,-32891.215,952.832][1305.789,4793.063,-29393.303,-30990.045,-24682.271,-27395.482,-32875.012,920.870][1306.884,4794.315,-29391.336,-30989.441,-24687.412,-27394.766,-32874.320,916.913][1321.122,4803.435,-29396.053,-30981.662,-24696.486,-27407.418,-32881.227,960.209][1319.334,4805.021,-29396.029,-30977.684,-24698.744,-27414.504,-32891.574,957.191][1309.700,4798.003,-29391.738,-30988.279,-24688.551,-27403.596,-32880.598,920.020][1309.231,4795.746,-29391.873,-30993.621,-24686.182,-27400.311,-32876.688,914.276][1318.172,4802.630,-29394.912,-30982.064,-24693.133,-27408.178,-32885.605,949.390][1319.960,4807.838,-29392.924,-30973.348,-24696.219,-27415.666,-32893.699,963.941][1309.723,4803.568,-29387.045,-30979.584,-24677.801,-27403.551,-32882.969,926.390][1299.664,4795.701,-29388.609,-30986.938,-24666.244,-27396.309,-32877.402,903.212][1311.489,4802.518,-29391.693,-30981.238,-24694.453,-27405.719,-32881.000,943.221][1321.525,4807.637,-29397.617,-30978.668,-24698.498,-27417.275,-32889.', b'363,970.334][1311.086,4802.742,-29392.900,-30984.188,-24688.283,-27410.436,-32881.563,940.204][1302.682,4796.617,-29390.621,-30992.324,-24671.877,-27397.738,-32873.359,911.146][1307.890,4800.395,-29394.375,-30988.994,-24681.510,-27410.637,-32888.891,933.789][1324.989,4813.381,-29394.264,-30978.197,-24688.953,-27422.438,-32904.090,969.261][1305.923,4800.819,-29395.404,-30981.461,-24678.426,-27408.043,-32876.664,943.132][1294.457,4793.979,-29390.129,-30988.658,-24667.160,-27397.023,-32869.582,910.342][1304.314,4798.092,-29393.861,-30988.703,-24674.336,-27405.496,-32881.629,923.194][1321.703,4808.933,-29396.834,-30978.311,-24684.193,-27415.510,-32889.832,964.612][1311.511,4806.362,-29391.693,-30975.852,-24677.801,-27412.715,-32891.461,942.864][1305.141,4799.635,-29388.564,-30987.117,-24666.289,-27400.533,-32881.359,910.476][1305.588,4796.550,-29393.459,-30990.291,-24669.932,-27400.197,-32879.840,922.479][1317.658,4803.077,-29399.518,-30981.617,-24681.041,-27410.436,-32886.188,961.706][1315.892,4805.356,-29395.248,-30975.404,-24671.877,-27408.959,-32889.520,964.098][1300.424,4798.450,-29389.391,-30983.338,-24662.154,-27394.342,-32881.000,915.505][1300.804,4800.171,-29384.898,-30981.641,-24663.986,-27390.318,-32878.164,911.035][1319.625,4807.368,-29395.582,-30982.043,-24676.928,-27407.238,-32888.734,955.135][1316.630,4805.245,-29398.422,-30978.623,-24673.732,-27410.637,-32890.211,965.349][1304.403,4802.183,-29388.006,-30981.350,-24646.307,-27395.615,-32874.922,928.804][1305.789,4800.774,-29386.643,-30986.938,-24660.881,-27391.928,-32871.391,916.801][1317.769,4805.334,-29393.035,-30980.947,-24668.523,-27405.004,-32887.035,947.289][1323.626,4809.782,-29394.867,-30974.443,-24670.045,-27410.346,-32888.266,974.782][1303.040,4800.596,-29388.541,-30980.277,-24657.705,-27402.232,-32884.535,926.524][1305.364,4802.250,-29383.154,-30984.791,-24647.982,-27393.984,-32874.141,907.369][1317.278,4807.860,-29387.580,-30979.203,-24653.549,-27403.305,-32881.270,940.383][1323.536,4814.409,-29387.961,-30967.760,-24657.260,-27412.201,-32892.355,963.003][1315.355,4804.820,-29390.441,-30979.539,-24652.363,-27405.115,-32876.664,948.720][1306.616,4798.227,-29386.643,-30986.043,-24642.932,-27396.912,-32868.574,920.624][1314.685,4803.748,-29388.766,-30982.133,-24645.055,-27405.338,-32881.359,934.325][1322.888,4811.079,-29392.855,-30974.131,-24660.365,-27420.068,-32894.949,963.673][1312.494,4805.580,-29391.135,-30976.879,-24653.951,-27414.637,-32887.215,947.177][1303.956,4800.283,-29385.480,-30984.814,-24642.596,-27407.463,-32881.473,910.543][1306.079,4800.283,-29391.357,-30987.541,-24648.742,-27412.313,-32878.430,923.440][1320.362,4810.006,-29392.543,-30974.443,-24658.980,-27422.594,-32889.766,964.142][1318.351,4807.882,-29390.867,-30973.684,-24653.236,-27416.068,-32879.348,959.404][1305.342,4799.836,-29385.055,-30982.512,-24641.814,-27404.824,-32870.473,920.400][1305.990,4798.428,-29387.826,-30985.730,-24644.787,-27409.920,-32880.063,917.539][1322.463,4807.592,-29392.252,-30976.588,-24653.191,-27419.488,-32886.992,961.863][1327.716,4812.956,-29388.654,-30971.895,-24644.004,-27423.533,-32898.547,963.874][1308.225,4799.679,-29386.217,-30982.779,-24632.068,-27408.625,-32877.828,923.373][1299.217,4791.074,-29387.334,-30986.469,-24650.195,-27403.617,-32864.797,915.930][1322.419,4804.418,-29388.877,-30977.125,-24652.855,-27418.861,-32884.781,954.308][1326.218,4807.592,-29387.916,-30970.486,-24651.715,-27422.371,-32886.992,970.826][1311.958,4796.438,-29384.988,-30980.344,-24636.674,-27411.441,-32875.859,933.789][1308.113,4788.034,-29389.547,-30991.297,-24635.957,-27410.883,-32874.184,915.684][1319.736,4798.048,-29390.107,-30981.170,-24646.553,-27420.939,-32886.254,940.606][1329.504,4804.462,-29391.873,-30974.801,-24651.828,-27429.412,-32890.949,966.020][1312.852,4793.734,-29387.760,-30980.479,-24641.971,-27420.381,-32882.344,937.566][1308.337,4791.186,-29383.535,-30987.652,-24634.461,-27413.051,-32876.777,909.314][1319.938,4794.203,-29391.738,-30986.557,-24645.078,-27425.164,-32886.656,934.884][1331.113,4799.791,-29395.092,-30977.104,-24652.141,-27431.445,-32']
INDEX_b'1.203782320022583'___FLEX_[b'\x96\xa6\xd3R262,324,353,348,37\xfe']___EMG_[b'892.020,975.497][1323.693,4798.271,-29387.021,-30978.689,-24642.463,-27419.621,-32880.129,941.925][1308.002,4789.241,-29380.049,-30981.932,-24628.246,-27403.215,-32863.746,920.490][1314.685,4789.241,-29387.982,-30983.137,-24635.578,-27411.016,-32873.289,937.410][1325.727,4797.556,-29390.285,-30972.275,-24647.693,-27423.713,-32889.742,969.596][1324.385,4797.131,-29385.457,-30973.348,-24643.803,-27418.549,-32882.074,958.376][1309.499,4785.039,-29385.502,-30986.602,-24630.123,-27405.629,-32868.730,921.540][1314.461,4785.486,-29388.877,-30987.027,-24637.902,-27411.084,-32873.871,933.610][1326.554,4796.394,-29389.525,-30973.930,-24647.178,-27423.713,-32890.211,960.209][1323.447,4796.259,-29385.859,-30970.107,-24637.254,-27419.287,-32888.398,954.889][1309.656,4783.876,-29385.682,-30984.947,-24621.586,-27410.971,-32877.762,918.388][1314.819,4785.776,-29385.814,-30987.922,-24650.576,-27411.373,-32877.828,918.031][1329.526,4793.801,-29390.195,-30977.236,-24654.957,-27421.074,-32888.961,962.958][1320.452,4792.840,-29388.207,-30970.219,-24649.660,-27419.801,-32891.617,958.577][1308.091,4783.318,-29386.732,-30984.457,-24642.730,-27410.121,-32882.074,919.506][1318.283,4783.675,-29386.844,-30991.273,-24643.512,-27406.389,-32874.633,928.782][1328.498,4792.929,-29387.201,-30976.969,-24646.463,-27408.178,-32874.766,959.918][1325.436,4795.477,-29384.764,-30964.877,-24647.045,-27408.826,-32882.410,970.647][1312.271,4786.134,-29382.105,-30976.969,-24644.854,-27396.443,-32871.191,937.075][1312.293,4782.267,-29382.820,-30986.602,-24641.479,-27392.420,-32870.406,918.120][1320.742,4786.179,-29388.318,-30979.719,-24649.592,-27399.438,-32879.953,948.966][1330.555,4795.522,-29386.262,-30968.811,-24655.336,-27403.617,-32888.066,973.195][1319.736,4788.437,-29383.199,-30977.863,-24650.934,-27393.270,-32877.270,943.936][1309.834,4779.920,-29383.557,-30987.832,-24646.619,-27383.859,-32871.703,914.499][1316.741,4782.200,-29388.498,-30983.025,-24654.465,-27390.363,-32879.035,937.745][1329.504,4790.515,-29389.324,-30972.119,-24665.908,-27399.371,-32890.727,973.150][1313.813,4788.034,-29379.959,-30969.705,-24656.029,-27388.865,-32888.398,927.843][1311.891,4778.557,-29384.094,-30988.568,-24656.789,-27384.842,-32879.684,909.872][1319.960,4777.060,-29390.979,-30988.211,-24663.227,-27385.893,-32874.250,948.027][1329.012,4787.833,-29390.219,-30973.705,-24670.490,-27391.615,-32882.098,969.261][1324.318,4785.508,-29385.703,-30972.275,-24667.340,-27386.652,-32880.398,963.517][1309.902,4779.406,-29378.260,-30978.242,-24656.588,-27373.174,-32866.586,922.591][1316.317,4780.211,-29383.758,-30983.965,-24659.605,-27378.539,-32870.629,930.794][1329.817,4785.240,-29391.113,-30975.582,-24671.051,-27390.096,-32882.008,971.921][1325.257,4784.793,-29386.688,-30971.582,-24689.088,-27388.172,-32880.688,964.433][1312.472,4776.166,-29380.719,-30979.785,-24670.715,-27375.275,-32870.273,922.434][1315.601,4775.137,-29381.947,-30982.869,-24668.838,-27374.047,-32871.301,920.959][1330.353,4782.849,-29387.826,-30974.555,-24678.158,-27386.764,-32884.938,957.526][1331.337,4785.821,-29386.598,-30968.877,-24679.498,-27386.117,-32886.992,964.232][1311.131,4776.590,-29380.316,-30976.678,-24671.340,-27374.002,-32875.773,922.658][1303.934,4772.522,-29383.043,-30986.490,-24671.877,-27375.945,-32875.035,907.838][1324.363,4782.290,-29387.021,-30978.734,-24680.662,-27385.445,-32884.602,952.721][1333.796,4786.648,-29388.541,-30970.822,-24683.232,-27388.754,-32891.617,963.092][1308.225,4775.472,-29384.742,-30977.104,-24671.766,-27377.443,-32878.879,925.094][1307.979,4770.890,-29382.977,-30984.055,-24663.740,-27369.486,-32867.613,918.433][1332.834,4781.172,-29386.486,-30979.740,-24674.111,-27382.406,-32878.230,953.727][1336.634,4787.498,-29389.168,-30970.553,-24679.699,-27389.916,-32886.320,973.843][1323.916,4780.546,-29385.211,-30974.488,-24665.865,-27381.377,-32878.945,947.893][1317.255,4775.092,-29381.479,-30981.350,-24658.242,-27372.035,-32871.055,920.154][1322.664,4780.122,-29384.361,-30977.885,-24670.826,-27382.563,-32885.004,926.502][1336.433,4791.275,-29384.205,-30965.010,-24675.564,-27388.529', b',-32883.012,974.514][1321.972,4782.558,-29388.408,-30976.768,-24675.744,-27385.938,-32870.766,956.901][1297.094,4766.196,-29394.398,-30994.627,-24672.793,-27382.674,-32874.922,900.909][1296.870,4767.046,-29398.668,-30993.396,-24677.465,-27385.646,-32879.773,907.615][1330.555,4787.319,-29391.717,-30974.086,-24678.650,-27391.748,-32887.820,957.638][1339.719,4788.369,-29386.330,-30967.760,-24658.488,-27380.238,-32878.746,968.009][1305.074,4774.444,-29387.246,-30983.674,-24672.547,-27370.314,-32875.125,902.407][1314.037,4783.452,-29383.066,-30981.707,-24674.514,-27369.129,-32879.438,915.505][1351.610,4800.037,-29381.746,-30966.486,-24677.621,-27376.461,-32883.059,986.628][1350.403,4803.881,-29377.164,-30961.635,-24672.346,-27369.912,-32875.816,989.869][1316.764,4785.083,-29378.461,-30975.516,-24660.746,-27352.588,-32860.438,937.007][1322.039,4784.815,-29376.719,-30974.891,-24654.330,-27344.988,-32857.844,939.466][1338.467,4793.890,-29383.982,-30968.699,-24668.793,-27361.193,-32876.332,970.267][1334.645,4785.754,-29395.047,-30972.609,-24676.570,-27368.168,-32888.109,971.072][1309.231,4787.363,-29384.475,-30978.422,-24662.578,-27353.863,-32873.402,941.031][1310.550,4799.366,-29368.225,-30972.945,-24654.846,-27349.482,-32873.469,922.188][1340.635,4805.692,-29371.488,-30962.775,-24656.141,-27353.975,-32881.719,953.525][1313.903,4780.993,-29400.902,-30976.543,-24671.117,-27359.920,-32889.742,968.121][1308.404,4777.238,-29391.426,-30979.203,-24657.594,-27345.391,-32867.746,950.642][1308.650,4774.824,-29387.469,-30984.859,-24647.178,-27340.854,-32864.371,925.675][1325.146,4783.295,-29388.318,-30974.533,-24648.766,-27351.248,-32870.789,959.292][1334.131,4791.722,-29389.771,-30966.016,-24665.373,-27369.107,-32876.465,995.301][1323.849,4790.090,-29382.730,-30968.385,-24655.738,-27370.090,-32870.316,964.053][1314.081,4784.368,-29378.998,-30976.543,-24637.635,-27369.330,-32869.180,925.206][1324.318,4789.733,-29382.953,-30975.002,-24654.732,-27375.723,-32868.844,953.727][1327.448,4795.991,-29386.373,-30962.484,-24672.771,-27385.893,-32879.684,976.883][1321.145,4793.376,-29384.250,-30966.129,-24665.908,-27385.781,-32878.098,957.504][1305.319,4784.569,-29382.061,-30977.191,-24656.141,-27377.020,-32862.137,927.195][1311.422,4788.951,-29382.797,-30975.047,-24655.404,-27383.479,-32866.027,933.655][1330.689,4802.898,-29383.871,-30962.395,-24672.793,-27398.477,-32881.918,973.329][1323.469,4803.122,-29376.561,-30953.633,-24663.875,-27390.943,-32876.375,957.772][1322.262,4790.560,-29381.457,-30974.174,-24658.645,-27382.652,-32851.809,940.204][1328.252,4794.807,-29381.568,-30975.762,-24661.887,-27389.850,-32862.070,933.610][1324.989,4804.887,-29382.193,-30960.764,-24670.893,-27400.197,-32872.195,969.037][1317.725,4804.731,-29381.770,-30956.875,-24669.775,-27397.516,-32869.379,968.658][1305.498,4791.230,-29381.680,-30967.357,-24656.744,-27381.691,-32852.949,938.751][1310.885,4794.427,-29373.566,-30965.367,-24653.236,-27380.037,-32856.305,923.999][1329.862,4813.314,-29371.912,-30953.320,-24662.779,-27389.871,-32864.262,966.780][1330.957,4814.364,-29380.674,-30954.305,-24669.396,-27392.309,-32868.082,980.370][1310.952,4798.472,-29380.070,-30964.676,-24661.416,-27380.818,-32859.855,932.314][1308.270,4796.662,-29376.695,-30968.988,-24656.566,-27371.408,-32854.762,916.489][1320.854,4805.960,-29377.322,-30962.172,-24667.809,-27380.484,-32866.719,949.167][1332.365,4812.219,-29381.389,-30956.629,-24678.762,-27388.061,-32878.566,966.959][1312.874,4797.377,-29384.250,-30964.340,-24672.547,-27371.074,-32864.418,932.314][1310.505,4794.985,-29381.232,-30973.213,-24664.523,-27357.260,-32850.492,929.855][1322.597,4799.903,-29383.736,-30968.609,-24672.637,-27365.105,-32862.965,950.307][1325.168,4804.731,-29385.123,-30958.328,-24681.332,-27373.152,-32869.199,976.302][1320.675,4796.930,-29385.346,-30963.133,-24672.660,-27365.217,-32858.828,954.755][1320.787,4791.789,-29382.797,-30970.777,-24664.500,-27356.611,-32851.340,922.523][1318.909,4792.996,-29385.994,-30966.754,-24666.982,-27359.674,-32849.711,938.594][1323.536,4804.217,-29385.346,-30957.857,-24669.352,-27375']
INDEX_b'1.6047091484069824'___FLEX_[b'279,324,353,346,370\n278,324,353,346,370\n279,324,354,346,370\n279,323,354,346,370\n279,324,353,347,369\n279,325,354,346,370\n279,324,354,346,369\n279,324,353,346,370\n279,323,353,346,369\n279,325,353,346,370\n279,325,354,346,369\n279,324,354,346,369\n279,324,354,346,369\n279,324,353,346,369\n280,324,353,346,369\n280,324,354,346,370\n279,323,354,346,370\n280,324,353,346,369\n280,324,354,346,369\n280,324,354,346,371\n280,324,353,346,370\n280,324,354,346,369\n280,324,354,346,369\n280,323,353,346,369\n280,324,354,346,369\n280,324,355,346,369\n280,323,353,346,369\n281,323,352,346,369\n281,324,354,346,369\n281,324,353,346,370\n279,324,353,345,369\n281,324,353,346,369\n280,324,354,346,369\n280,323,353,346,369\n281,323,353,346,369\n280,323,355,346,369\n281,324,354,346,369\n281,324,354,346,369\n281,324,354,345,369\n281,324,354,346,369\n281,324,353,346,369\n281,324,354,346,367\n281,324,354,345,369\n281,323,353,347,369\n281,324,353,346,368\n281,324,354,346,369\n281,324,353,346,368\n281,324,353,345,369\n281,324,354,345,370\n281,324,355,346,369\n']___EMG_[b'.902,-32865.535,971.608][1323.022,4809.604,-29374.146,-30954.059,-24682.428,-27372.369,-32861.535,958.175][1313.098,4801.579,-29371.711,-30965.033,-24673.666,-27362.313,-32852.996,916.377][1313.545,4788.168,-29390.777,-30978.041,-24679.588,-27366.021,-32857.555,922.993][1326.196,4793.667,-29396.275,-30969.168,-24691.412,-27379.566,-32870.184,962.935][1322.620,4798.718,-29388.498,-30961.791,-24683.924,-27375.543,-32866.785,957.079][1310.058,4792.750,-29381.746,-30970.822,-24670.357,-27363.205,-32853.332,919.305][1312.226,4792.459,-29383.379,-30974.621,-24671.139,-27366.982,-32860.797,906.855][1331.203,4805.603,-29382.977,-30961.658,-24677.801,-27375.566,-32863.680,956.230][1332.901,4806.094,-29382.307,-30958.082,-24677.979,-27374.225,-32865.801,959.806][1320.496,4800.216,-29378.953,-30967.090,-24665.977,-27360.100,-32855.477,919.506][1314.260,4802.116,-29380.518,-30974.354,-24662.691,-27361.105,-32858.852,900.373][1323.290,4799.567,-29387.760,-30968.207,-24674.000,-27374.449,-32869.582,943.445][1333.907,4807.592,-29386.709,-30960.943,-24684.998,-27381.467,-32873.715,965.417][1324.810,4810.900,-29368.783,-30957.813,-24670.559,-27368.660,-32861.242,923.082][1317.144,4797.667,-29379.289,-30973.639,-24665.305,-27360.145,-32853.285,902.072][1331.382,4799.098,-29386.754,-30968.117,-24673.934,-27368.436,-32869.266,926.770][1355.276,4821.673,-29372.672,-30946.861,-24675.744,-27377.533,-32883.660,956.968][1331.359,4817.784,-29381.322,-30971.738,-24676.750,-27368.883,-32875.035,916.980][1300.670,4792.459,-29390.352,-30983.652,-24666.602,-27351.650,-32856.258,899.501][1302.973,4788.995,-29400.836,-30983.965,-24673.709,-27354.891,-32867.727,913.762][1317.993,4800.059,-29400.121,-30970.576,-24677.867,-27357.439,-32874.789,948.362][1325.861,4809.604,-29385.279,-30964.854,-24663.539,-27341.904,-32866.496,935.443][1316.630,4799.545,-29382.932,-30972.006,-24649.883,-27325.320,-32856.660,901.915][1322.799,4800.171,-29387.090,-30974.979,-24657.863,-27331.422,-32867.590,917.785][1332.119,4811.615,-29388.766,-30966.865,-24669.754,-27341.904,-32882.879,949.010][1313.366,4805.737,-29391.023,-30967.090,-24657.863,-27331.467,-32878.500,931.911][1299.217,4790.135,-29393.684,-30981.127,-24638.059,-27318.814,-32867.277,893.489][1314.417,4793.309,-29391.045,-30979.785,-24659.025,-27325.654,-32866.430,902.429][1321.793,4803.255,-29396.813,-30975.270,-24673.240,-27352.074,-32891.797,929.251][1316.920,4811.593,-29387.334,-30966.217,-24663.227,-27349.191,-32878.098,948.474][1314.014,4799.299,-29382.463,-30971.559,-24643.803,-27331.287,-32856.215,920.802][1312.673,4798.092,-29389.145,-30979.316,-24642.082,-27329.566,-32853.418,916.511][1309.723,4809.134,-29384.922,-30961.881,-24647.938,-27341.904,-32869.156,939.086][1318.105,4814.275,-29382.395,-30956.740,-24649.502,-27345.324,-32871.770,949.122][1304.805,4802.853,-29381.859,-30968.766,-24639.578,-27335.154,-32862.406,910.275][1304.627,4803.748,-29376.584,-30972.230,-24639.244,-27335.334,-32854.180,908.621][1317.546,4816.555,-29377.322,-30959.133,-24646.127,-27345.705,-32867.168,937.924][1320.653,4808.508,-29393.973,-30962.619,-24653.840,-27348.900,-32872.688,959.404][1297.943,4801.512,-29391.090,-30977.305,-24652.543,-27344.586,-32867.637,910.923][1288.623,4802.697,-29383.625,-30981.752,-24644.697,-27336.764,-32867.145,864.498][1311.399,4803.144,-29388.385,-30975.426,-24650.822,-27338.463,-32869.043,914.052][1329.325,4820.489,-29386.285,-30961.770,-24661.037,-27348.453,-32879.617,954.844][1299.687,4800.328,-29399.002,-30979.896,-24660.590,-27343.670,-32877.539,909.291][1279.839,4781.038,-29400.857,-30992.213,-24653.102,-27332.807,-32868.285,885.755][1321.547,4796.416,-29396.566,-30983.563,-24656.945,-27332.896,-32866.363,941.433][1319.580,4806.586,-29396.588,-30968.475,-24660.924,-27333.680,-32868.797,951.536][1302.280,4809.760,-29388.541,-30965.682,-24648.787,-27323.264,-32862.340,927.955][1310.572,4822.925,-29368.537,-30967.895,-24638.326,-27317.295,-32858.563,895.433][1330.376,4814.119,-29380.629,-30967.291,-24649.258,-27321.453,-32867.324,903.726][1321.078,4800.126,-29406.088,-30973.057,-24666.914,-2', b'7336.094,-32878.543,929.318][1298.770,4801.870,-29400.992,-30978.869,-24671.721,-27339.111,-32880.598,903.636][1267.858,4785.128,-29400.746,-30993.934,-24664.457,-27321.787,-32863.055,891.700][1288.556,4797.020,-29391.760,-30988.703,-24663.383,-27316.602,-32857.109,908.576][1300.357,4805.938,-29396.566,-30979.002,-24678.939,-27331.422,-32875.125,933.051][1301.967,4799.612,-29403.250,-30982.490,-24689.893,-27340.965,-32886.211,930.570][1301.341,4796.707,-29389.994,-30983.584,-24673.799,-27320.313,-32855.922,909.291][1308.359,4810.185,-29376.137,-30974.621,-24656.297,-27310.836,-32847.496,907.727][1305.051,4810.520,-29388.207,-30970.195,-24674.648,-27322.570,-32862.203,930.078][1303.643,4801.244,-29394.107,-30966.643,-24698.096,-27329.656,-32869.133,938.952][1286.522,4798.763,-29390.576,-30977.416,-24687.188,-27320.469,-32860.281,896.171][1271.010,4797.511,-29393.393,-30988.658,-24689.199,-27321.586,-32861.133,855.267][1258.515,4792.795,-29402.064,-30990.492,-24714.725,-27348.654,-32887.910,853.568][1275.502,4806.117,-29399.561,-30980.053,-24721.186,-27352.813,-32889.496,920.132][1318.306,4824.154,-29383.424,-30973.125,-24695.525,-27321.162,-32853.465,944.629][1321.636,4821.897,-29373.342,-30974.510,-24685.578,-27311.975,-32852.504,906.050][1323.246,4835.040,-29372.180,-30966.129,-24696.799,-27323.129,-32863.793,914.611][1310.796,4818.790,-29396.098,-30971.828,-24713.697,-27332.807,-32863.859,952.743][1293.473,4803.680,-29399.584,-30981.439,-24709.695,-27326.303,-32856.840,927.664][1281.895,4798.897,-29397.281,-30992.637,-24703.482,-27317.877,-32851.633,880.860][1296.490,4816.645,-29389.459,-30982.467,-24709.115,-27324.648,-32859.230,899.188][1323.916,4837.878,-29381.010,-30962.508,-24717.697,-27334.416,-32869.938,949.279][1313.187,4829.161,-29381.412,-30967.648,-24719.664,-27332.963,-32865.066,935.979][1281.917,4807.815,-29395.135,-30989.285,-24713.719,-27318.234,-32854.426,885.911][1291.439,4805.312,-29410.916,-30998.381,-24723.197,-27321.273,-32859.945,896.216][1301.184,4821.293,-29399.449,-30977.104,-24732.854,-27332.920,-32872.352,943.691][1312.785,4833.118,-29388.252,-30971.068,-24728.137,-27324.717,-32866.586,952.207][1288.824,4821.472,-29385.904,-30982.244,-24717.408,-27306.768,-32844.523,915.729][1279.324,4812.464,-29387.982,-30978.623,-24715.328,-27307.506,-32852.949,890.404][1290.299,4821.651,-29395.605,-30973.527,-24727.711,-27316.670,-32863.121,929.117][1290.277,4833.162,-29392.678,-30973.660,-24735.154,-27323.979,-32867.973,924.759][1272.641,4827.842,-29383.580,-30982.088,-24728.762,-27322.123,-32866.160,873.596][1291.975,4818.433,-29393.973,-30989.262,-24723.801,-27316.670,-32854.984,906.676][1281.180,4810.431,-29410.559,-30985.061,-24734.305,-27326.996,-32863.230,927.664][1281.671,4823.126,-29405.082,-30977.191,-24737.814,-27339.781,-32875.324,923.708][1296.938,4827.485,-29391.068,-30977.908,-24714.568,-27330.707,-32863.277,931.934][1307.711,4830.458,-29383.178,-30977.438,-24722.996,-27321.385,-32849.172,919.305][1308.806,4834.883,-29391.426,-30976.299,-24736.898,-27336.451,-32859.320,937.857][1297.832,4830.145,-29404.590,-30976.633,-24743.111,-27348.453,-32871.816,946.462][1268.752,4815.840,-29407.496,-30988.814,-24743.582,-27342.217,-32865.156,906.408][1266.830,4813.716,-29401.953,-30994.828,-24738.039,-27337.836,-32862.965,891.544][1300.938,4822.545,-29404.613,-30986.781,-24738.217,-27341.859,-32866.184,925.250][1314.819,4833.676,-29404.412,-30976.521,-24746.645,-27353.863,-32877.785,953.391][1296.915,4831.575,-29396.365,-30976.365,-24738.373,-27348.521,-32874.406,928.737][1288.936,4828.267,-29391.180,-30982.893,-24724.939,-27334.416,-32854.984,909.247][1310.617,4854.441,-29379.936,-30977.840,-24734.998,-27350.734,-32864.352,929.363][1296.379,4843.399,-29394.488,-30974.891,-24747.381,-27372.840,-32888.398,945.881][1277.156,4830.078,-29399.674,-30980.701,-24746.555,-27369.129,-32876.645,925.318][1287.147,4834.771,-29394.242,-30984.277,-24728.158,-27349.213,-32851.543,911.258][1282.565,4820.444,-29411.006,-30994.201,-24732.674,-27354.152,-32854.516,919.059][1286.522,4827.932,-29417.107,-30988.703,-24750.57']
INDEX_b'2.0056614875793457'___FLEX_[b'281,324,353,345,369\n282,324,354,346,368\n281,322,354,345,368\n281,324,354,346,369\n282,323,354,346,368\n282,323,354,345,368\n282,324,354,345,368\n282,324,354,346,369\n282,324,354,345,368\n282,324,353,346,368\n282,324,354,346,369\n283,324,354,345,368\n283,324,354,346,368\n283,324,354,344,367\n283,324,354,346,367\n283,325,354,346,367\n283,324,354,345,367\n283,323,354,345,367\n283,324,354,346,367\n283,324,354,346,368\n283,323,354,346,368\n283,324,354,346,366\n284,325,354,345,366\n283,324,353,345,366\n283,325,354,346,367\n284,325,354,345,366\n284,324,353,346,366\n283,324,354,346,367\n284,324,354,346,366\n284,324,354,346,367\n283,325,354,345,365\n284,325,354,345,366\n284,324,354,345,367\n285,324,354,345,366\n284,325,354,345,367\n284,325,354,346,366\n285,324,354,346,367\n285,325,353,346,366\n284,325,355,346,366\n285,324,353,345,366\n285,325,354,345,366\n285,325,355,346,366\n285,325,354,345,366\n286,325,354,345,366\n285,323,354,345,366\n286,325,354,345,366\n286,325,353,346,366\n286,325,354,345,366\n286,325,354,346,366\n286,324,354,346,365\n', b'287,324,354,346,365\n287,325,354,345,366\n288,324,354,346,365\n287,325,354,346,366\n287,324,355,346,366\n288,325,354,345,366\n288,325,355,345,366\n289,325,355,346,366\n288,325,355,346,366\n288,325,355,346,365\n289,325,355,347,365\n289,324,354,346,366\n290,325,354,346,366\n290,325,354,346,365\n289,325,354,345,366\n290,325,355,346,365\n289,325,354,346,365\n291,325,354,346,365\n290,325,354,346,365\n291,326,355,346,365\n291,325,355,346,365\n291,325,355,346,366\n292,325,354,346,366\n292,324,355,346,365\n292,325,355,346,366\n293,325,355,346,365\n292,325,355,346,364\n293,325,355,346,365\n293,325,355,346,365\n294,325,355,346,366\n294,326,354,346,365\n295,325,354,346,365\n294,325,354,346,365\n295,326,354,346,366\n295,325,355,346,365\n296,325,354,346,365\n295,326,355,347,364\n296,326,353,346,365\n296,326,355,347,366\n297,325,355,347,366\n296,326,354,347,366\n298,325,355,347,365\n297,325,354,347,365\n299,326,354,347,366\n298,326,354,347,366\n298,325,354,347,366\n299,326,354,347,365\n299,326,354,347,365\n299,325,354,347,365\n299,326,355,347,366\n', b'300,326,354,347,365\n301,326,354,348,365\n301,326,353,347,365\n301,326,354,347,366\n301,326,354,347,364\n302,326,354,348,366\n302,326,355,347,365\n303,326,354,347,366\n302,326,354,346,365\n303,327,354,347,366\n304,327,354,347,366\n304,327,354,347,366\n304,326,355,347,365\n305,327,354,347,366\n304,327,353,347,365\n306,327,354,347,366\n305,328,354,348,365\n306,326,353,347,366\n306,327,354,347,365\n306,327,354,348,365\n307,327,354,347,365\n307,327,354,347,366\n307,328,354,347,365\n309,328,354,347,365\n307,327,354,347,366\n308,327,354,348,365\n308,328,354,348,366\n308,327,353,348,366\n308,327,354,348,365\n308,328,354,348,365\n309,328,354,348,365\n309,328,354,348,366\n309,327,354,348,364\n309,328,354,348,366\n310,329,355,348,365\n310,328,354,348,366\n309,328,355,347,365\n311,328,354,348,366\n312,328,354,348,365\n312,329,355,348,365\n312,329,355,348,365\n312,329,355,348,365\n311,328,355,348,364\n312,329,355,349,365\n312,329,355,348,365\n313,329,356,348,365\n313,329,355,349,365\n313,330,355,348,364\n313,329,355,349,365\n313,329,355,349,365\n', b'313,330,356,349,365\n313,330,355,349,365\n314,331,356,349,365\n314,330,355,350,366\n314,331,357,349,364\n314,330,356,349,365\n314,331,356,350,366\n315,331,357,349,365\n314,331,358,349,365\n314,331,358,350,365\n314,330,357,350,364\n315,331,358,350,365\n314,332,359,350,365\n315,332,358,350,365\n314,332,357,349,365\n314,332,359,350,366\n315,333,358,350,364\n315,333,359,350,365\n315,333,359,350,365\n315,333,358,350,365\n315,333,359,350,365\n315,334,358,350,365\n316,333,359,350,365\n315,333,358,350,365\n315,334,359,350,365\n315,334,358,349,365\n316,334,359,350,366\n315,334,360,350,366\n315,335,359,351,365\n315,334,360,350,366\n315,335,359,351,366\n315,334,359,351,364\n315,334,360,351,365\n315,335,360,351,366\n315,335,359,350,365\n314,335,360,351,366\n314,336,360,350,366\n314,337,359,351,366\n314,336,360,351,366\n314,336,360,351,366\n312,337,360,351,366\n312,338,360,351,365\n311,337,360,351,366\n310,338,360,350,366\n309,338,361,350,366\n308,338,360,351,366\n307,338,360,351,366\n307,339,360,351,366\n305,339,361,351,366\n305,339,360,351,366\n', b'303,339,360,351,367\n303,339,360,352,366\n301,340,360,351,366\n300,340,361,351,366\n298,340,361,351,366\n296,341,361,351,366\n294,341,361,351,366\n293,341,361,351,366\n290,341,361,351,366\n289,341,361,351,367\n286,341,360,351,365\n285,342,361,350,366\n282,343,361,351,366\n281,344,361,351,366\n278,343,361,351,366\n276,343,360,351,366\n275,345,361,351,366\n271,344,361,352,366\n269,344,361,351,366\n267,345,360,351,367\n265,345,361,351,366\n264,346,362,352,366\n260,345,361,351,367\n260,346,361,352,366\n258,346,362,352,366\n256,347,361,351,367\n255,347,362,352,366\n254,347,361,351,367\n253,348,362,351,367\n250,349,361,351,367\n248,349,361,351,367\n247,348,361,351,366\n243,349,362,351,366\n244,351,362,352,367\n242,351,362,351,368\n241,351,361,351,367\n238,351,361,351,367\n237,351,362,351,368\n235,352,362,351,366\n234,352,362,351,367\n233,353,363,351,367\n230,353,362,351,367\n228,355,362,351,367\n227,354,361,351,367\n225,356,362,351,368\n224,356,362,351,367\n221,356,361,351,368\n220,357,362,351,368\n218,357,362,351,368\n218,358,363,351,368\n']___EMG_[b'8,-27376.059,-32871.457,934.616][1317.993,4833.475,-29412.078,-30986.625,-24749.080,-27384.932,-32874.969,956.655][1294.680,4829.675,-29402.646,-30994.113,-24741.682,-27379.635,-32865.645,899.591][1211.308,4801.825,-29418.783,-31004.193,-24746.555,-27387.525,-32877.539,828.914][1269.333,4823.148,-29419.945,-30993.129,-24753.439,-27398.879,-32880.867,923.820][1285.829,4830.279,-29414.314,-30982.623,-24740.117,-27398.924,-32869.156,968.523][1268.707,4826.457,-29402.691,-30986.268,-24734.908,-27390.877,-32857.668,923.149][1289.562,4829.943,-29399.115,-30988.793,-24734.641,-27389.670,-32853.980,918.970][1302.950,4838.236,-29404.971,-30983.941,-24749.773,-27406.770,-32866.250,944.205][1298.301,4842.483,-29405.529,-30976.432,-24751.918,-27412.916,-32868.305,961.728][1277.045,4838.839,-29396.254,-30981.484,-24738.709,-27407.172,-32861.289,919.260][1272.887,4836.560,-29393.348,-30989.955,-24735.266,-27404.646,-32860.750,890.896][1282.565,4833.498,-29407.385,-30992.615,-24750.107,-27415.107,-32870.430,927.106][1275.480,4825.138,-29419.186,-30987.832,-24762.469,-27427.557,-32886.992,935.219][1274.362,4823.305,-29409.039,-30988.234,-24746.732,-27421.543,-32882.477,904.083][1254.849,4819.215,-29402.758,-30995.029,-24747.693,-27411.150,-32873.848,891.745][1267.053,4806.027,-29429.803,-31009.334,-24761.463,-27409.229,-32877.336,924.423][1281.336,4813.314,-29433.045,-30997.443,-24763.295,-27409.586,-32874.027,951.156][1267.478,4820.221,-29419.611,-30993.420,-24759.316,-27401.986,-32875.703,900.328][1256.637,4813.023,-29411.363,-30996.705,-24742.910,-27383.926,-32860.125,899.144][1297.787,4827.149,-29405.105,-30991.855,-24746.666,-27385.088,-32866.629,940.740][1282.565,4830.123,-29416.258,-30990.715,-24764.703,-27401.025,-32894.547,936.650][1272.440,4828.714,-29411.027,-30983.607,-24748.275,-27376.461,-32872.309,939.913][1268.417,4816.555,-29410.291,-30993.396,-24721.117,-27352.432,-32853.734,911.705][1278.766,4815.080,-29413.510,-30996.369,-24735.869,-27351.047,-32860.461,918.098][1282.252,4826.435,-29413.934,-30984.188,-24744.408,-27357.730,-32869.156,950.061][1276.977,4824.691,-29412.637,-30980.926,-24746.777,-27352.209,-32868.797,955.291][1252.391,4804.373,-29418.918,-31002.650,-24742.865,-27343.580,-32867.211,891.410][1240.388,4798.696,-29420.236,-31007.434,-24743.023,-27347.270,-32883.082,881.530][1287.974,4823.484,-29408.703,-30980.455,-24736.385,-27341.145,-32868.395,985.958][1298.323,4829.452,-29408.100,-30975.248,-24732.361,-27332.785,-32867.168,980.303][1280.598,4809.782,-29412.123,-30990.178,-24731.176,-27324.561,-32868.777,918.210][1247.540,4787.788,-29428.439,-31008.148,-24732.854,-27317.385,-32866.605,879.787][1259.163,4798.293,-29430.094,-31007.703,-24747.426,-27326.729,-32881.449,907.838][1266.517,4807.815,-29423.479,-30989.285,-24743.559,-27324.158,-32875.258,970.982][1286.052,4806.050,-29415.477,-30986.871,-24724.918,-27311.908,-32860.617,959.784][1291.551,4808.486,-29406.313,-30989.373,-24712.914,-27306.588,-32853.645,925.250][1280.286,4810.386,-29412.592,-30986.379,-24714.479,-27319.889,-32868.215,935.443][1274.362,4812.666,-29418.449,-30976.209,-24732.070,-27330.191,-32877.000,957.683][1282.834,4807.972,-29418.336,-30995.609,-24738.061,-27321.141,-32864.977,940.897][1256.749,4786.738,-29429.223,-31014.988,-24728.494,-27319.105,-32863.969,896.193][1241.617,4781.999,-29438.186,-31013.648,-24729.232,-27329.611,-32868.664,897.110][1267.523,4786.961,-29445.404,-31006.584,-24763.898,-27350.846,-32876.867,961.214][1243.606,4795.813,-29432.418,-30999.209,-24746.420,-27347.180,-32871.836,927.463][1272.798,4815.125,-29408.703,-30995.320,-24730.170,-27331.020,-32856.594,892.796][1285.806,4819.505,-29409.105,-30990.246,-24724.672,-27327.645,-32851.809,912.018][1272.261,4824.780,-29410.447,-30973.729,-24725.455,-27336.943,-32863.008,933.789][1268.573,4815.080,-29413.822,-30976.209,-24723.129,-27333.768,-32860.281,946.350][1244.120,4801.423,-29415.318,-30992.414,-24723.420,-27321.430,-32856.078,896.618][1275.547,4820.020,-29405.217,-30981.127,-24721.006,-27314.367,-32854.918,923.999][1285.359,4821.673,-29416.035,-30978.668,-2472', b'5.521,-27318.078,-32869.223,943.288][1283.012,4817.136,-29417.777,-30978.734,-24724.717,-27311.773,-32865.914,957.571][1269.490,4812.286,-29416.951,-30994.336,-24717.051,-27305.605,-32868.352,910.655][1259.834,4798.763,-29433.133,-31009.021,-24727.867,-27307.572,-32874.184,895.925][1265.690,4812.666,-29425.936,-30991.252,-24721.945,-27296.330,-32863.367,934.951][1285.561,4826.926,-29417.711,-30978.512,-24717.564,-27289.713,-32863.813,949.480][1241.326,4801.266,-29427.502,-30990.781,-24708.512,-27278.336,-32866.563,885.710][1236.320,4795.969,-29427.545,-31006.496,-24704.869,-27268.971,-32860.617,873.305][1296.870,4818.611,-29422.852,-30996.213,-24711.395,-27278.314,-32873.445,946.105][1273.558,4815.907,-29427.926,-30986.803,-24711.551,-27273.844,-32874.879,952.654][1290.433,4826.099,-29413.576,-30980.992,-24689.088,-27248.385,-32856.281,930.101][1256.079,4807.882,-29419.230,-30992.279,-24678.047,-27240.674,-32853.465,878.200][1252.122,4813.716,-29422.516,-30993.844,-24694.139,-27247.357,-32857.777,910.141][1275.391,4830.502,-29417.018,-30973.414,-24694.229,-27251.604,-32863.391,959.203][1291.171,4836.783,-29401.527,-30971.314,-24670.111,-27236.762,-32850.559,950.955][1245.774,4810.520,-29417.152,-30999.254,-24683.723,-27238.662,-32852.750,886.671][1228.295,4804.798,-29428.148,-31001.287,-24698.766,-27241.344,-32860.461,885.151][1293.898,4830.324,-29417.891,-30974.979,-24688.707,-27238.773,-32861.801,958.420][1301.050,4824.937,-29415.342,-30979.025,-24685.758,-27232.939,-32863.254,951.424][1276.151,4827.149,-29400.164,-30982.512,-24671.520,-27211.014,-32842.938,908.688][1289.204,4829.519,-29408.279,-30982.221,-24668.883,-27200.105,-32835.359,924.110][1278.453,4820.333,-29426.115,-30981.461,-24683.053,-27213.338,-32857.176,939.868][1244.120,4805.267,-29432.240,-30993.195,-24697.939,-27217.361,-32870.250,913.560][1247.875,4793.130,-29433.045,-31003.635,-24686.740,-27212.264,-32875.816,879.519][1292.065,4814.409,-29420.908,-30997.846,-24677.354,-27193.645,-32848.211,936.493][1275.502,4825.138,-29417.891,-30978.600,-24678.561,-27196.977,-32852.457,941.232][1271.323,4828.267,-29423.188,-30976.656,-24682.963,-27199.523,-32854.047,931.509][1292.981,4835.084,-29415.408,-30992.459,-24673.799,-27190.428,-32828.988,938.259][1273.938,4830.279,-29406.781,-30989.732,-24668.412,-27205.961,-32841.281,902.921][1245.529,4826.211,-29410.670,-30975.092,-24677.934,-27235.018,-32862.094,900.954][1248.926,4817.963,-29425.332,-30983.070,-24698.633,-27250.955,-32853.129,945.523][1274.675,4813.895,-29424.707,-30996.125,-24691.234,-27249.189,-32840.320,938.125][1272.619,4826.613,-29407.184,-30988.367,-24669.887,-27233.723,-32822.352,917.919][1248.077,4806.430,-29431.703,-30994.760,-24685.422,-27253.883,-32843.117,897.333][1229.324,4804.977,-29438.498,-30991.385,-24698.162,-27271.631,-32857.914,897.244][1232.989,4816.711,-29412.189,-30977.371,-24678.225,-27267.160,-32846.871,900.842][1254.290,4810.453,-29414.246,-30980.344,-24671.697,-27264.680,-32835.203,909.224][1270.384,4820.779,-29418.738,-30979.719,-24677.285,-27270.670,-32843.250,920.735][1289.606,4837.387,-29416.438,-30982.557,-24669.844,-27267.004,-32837.438,960.164][1276.508,4824.870,-29422.852,-30993.063,-24683.365,-27264.143,-32831.762,928.469][1275.703,4805.714,-29429.580,-31003.410,-24687.412,-27269.932,-32829.859,897.490][1235.448,4790.716,-29446.053,-31016.979,-24693.268,-27287.635,-32855.633,856.519][1219.221,4802.228,-29436.375,-30994.357,-24694.027,-27305.762,-32874.699,881.083][1270.943,4827.373,-29423.947,-30991.609,-24692.441,-27295.123,-32856.215,932.694][1233.213,4803.837,-29435.883,-31014.766,-24686.406,-27290.719,-32858.492,861.459][1214.035,4780.971,-29452.424,-31016.844,-24685.980,-27292.061,-32861.398,844.807][1237.035,4797.578,-29446.232,-31003.926,-24698.789,-27302.029,-32872.887,896.998][1192.086,4763.067,-29463.732,-31015.012,-24704.309,-27312.133,-32889.293,865.392][1255.341,4818.768,-29420.416,-30997.756,-24671.609,-27275.387,-32838.801,884.928][1241.393,4787.564,-29449.607,-31011.592,-24680.393,-27296.486,-32858.965,867.941][1166.850,4714.542,-29503.967,-31040.201,-']
INDEX_b'2.4057300090789795'___FLEX_[b'216,358,362,351,368\n214,359,362,351,368\n214,359,363,352,368\n213,360,363,351,366\n210,360,363,351,367\n211,361,364,351,368\n209,361,363,351,368\n208,362,363,351,369\n207,362,363,352,369\n206,364,363,351,369\n205,363,363,351,368\n204,364,363,352,369\n203,365,363,352,369\n202,364,364,352,369\n200,365,363,351,369\n200,366,364,352,369\n199,367,364,351,369\n199,366,363,351,369\n198,366,364,352,369\n198,367,364,352,370\n196,367,363,352,369\n196,367,364,352,370\n195,368,364,352,370\n195,368,364,352,370\n194,368,363,352,370\n194,369,364,352,370\n193,368,364,352,370\n193,369,364,352,371\n192,369,364,353,371\n191,369,365,351,371\n191,369,364,352,370\n191,370,364,353,370\n190,370,364,353,371\n190,371,364,353,371\n189,370,365,354,370\n190,370,366,353,371\n189,371,365,353,370\n189,371,365,353,371\n188,370,365,354,370\n187,372,365,352,371\n187,372,367,353,371\n187,371,366,354,372\n187,371,366,353,371\n187,371,365,354,371\n186,372,366,355,371\n186,372,364,354,371\n186,372,366,353,371\n186,372,366,354,372\n185,373,366,354,371\n185,372,366,354,372\n', b'185,372,367,354,371\n185,373,367,354,371\n183,373,366,354,372\n185,373,367,355,372\n184,373,367,355,372\n184,373,367,355,373\n184,373,367,355,373\n184,373,368,355,373\n184,373,366,355,373\n184,373,368,356,374\n183,373,367,355,373\n184,373,368,355,374\n183,373,368,355,373\n184,373,368,356,374\n183,373,369,355,374\n183,373,368,356,375\n183,373,369,356,375\n183,374,369,356,374\n182,373,369,356,375\n183,374,369,356,375\n183,374,370,356,375\n183,375,370,356,375\n182,375,369,355,376\n184,374,370,357,375\n182,374,370,357,375\n182,375,370,357,376\n182,374,370,357,376\n182,375,369,357,378\n182,374,371,357,375\n182,374,369,357,376\n182,374,371,358,376\n182,374,371,358,377\n181,375,371,358,377\n182,374,370,358,377\n183,375,371,358,377\n182,375,372,358,377\n182,375,371,358,377\n182,375,371,358,375\n182,375,372,358,377\n182,375,372,359,377\n183,375,372,359,377\n183,375,372,359,377\n182,375,372,359,377\n182,375,372,359,378\n182,375,372,360,379\n182,376,373,360,378\n182,375,374,360,378\n182,375,373,360,378\n182,375,373,360,379\n183,376,374,360,378\n', b'182,375,374,360,379\n183,375,373,361,379\n183,376,373,360,379\n183,376,373,361,379\n182,375,374,361,379\n183,375,373,361,379\n183,375,374,361,380\n181,376,375,361,380\n182,376,375,361,379\n183,376,374,362,381\n182,376,374,362,380\n183,376,374,362,381\n182,376,375,362,380\n182,375,375,361,381\n183,375,375,362,381\n183,376,375,362,381\n183,376,375,362,379\n183,376,375,362,381\n183,376,376,363,380\n183,376,375,363,380\n183,377,376,363,381\n184,377,376,363,381\n184,377,376,363,381\n184,376,375,363,382\n184,377,376,363,381\n185,377,376,364,381\n185,377,376,364,382\n186,376,376,364,382\n186,376,375,364,382\n185,376,377,364,382\n185,376,377,364,383\n187,377,377,365,382\n187,377,377,364,383\n188,376,377,365,383\n187,377,377,365,383\n187,377,377,364,383\n188,376,378,364,383\n188,375,377,365,383\n189,377,377,365,383\n189,376,377,365,383\n189,377,377,365,383\n189,377,378,365,383\n189,377,377,364,383\n190,377,378,365,383\n190,376,379,365,384\n190,377,378,365,383\n191,377,378,365,384\n191,377,378,365,384\n190,377,378,365,384\n191,377,378,366,384\n', b'191,377,378,366,384\n191,377,378,366,385\n191,377,379,366,385\n191,377,379,366,385\n191,376,378,366,384\n192,378,379,366,385\n192,377,379,366,384\n191,377,379,365,385\n193,378,379,366,385\n192,377,379,366,385\n193,378,379,366,385\n194,377,379,366,385\n193,377,379,366,385\n193,378,378,366,385\n194,378,379,366,385\n195,378,379,366,385\n195,378,379,367,385\n195,378,379,366,386\n195,378,379,366,386\n195,378,380,366,386\n196,377,379,366,385\n197,378,379,366,385\n196,378,379,366,386\n197,377,379,366,386\n197,378,380,366,385\n197,378,379,366,386\n199,378,379,366,386\n198,378,380,366,386\n199,378,379,366,385\n199,378,380,367,385\n199,379,380,366,386\n200,379,380,366,386\n199,378,379,366,386\n201,379,380,366,386\n201,378,379,366,386\n201,378,379,365,387\n201,378,379,366,386\n202,378,379,366,386\n202,378,380,365,386\n202,379,380,366,387\n202,379,379,365,387\n203,379,381,366,386\n203,378,379,366,387\n204,379,380,366,387\n204,379,379,366,386\n206,379,379,366,387\n205,379,378,366,386\n206,379,380,365,386\n206,379,379,365,386\n207,380,380,366,386\n', b'207,379,380,366,387\n207,379,380,366,387\n208,379,380,365,386\n208,380,380,366,388\n210,381,380,366,387\n209,378,380,365,387\n210,378,380,365,386\n210,379,380,364,387\n211,379,380,365,387\n211,379,380,365,387\n211,379,380,364,387\n212,379,379,365,387\n211,379,380,365,387\n213,379,380,365,387\n214,379,379,365,387\n215,379,380,365,388\n215,379,380,365,387\n217,380,380,365,387\n217,379,380,365,387\n217,380,380,365,387\n218,380,380,365,387\n219,380,380,365,388\n220,378,379,365,388\n221,379,380,365,388\n221,379,380,365,386\n222,379,380,365,387\n222,379,379,365,387\n223,379,380,364,387\n223,379,380,365,388\n224,379,380,365,387\n225,379,380,365,387\n226,378,380,364,387\n225,378,380,364,387\n227,378,380,364,387\n229,377,379,363,387\n228,378,380,364,387\n229,378,380,364,387\n230,377,379,364,387\n231,377,379,364,387\n233,378,379,363,387\n233,377,380,364,385\n234,377,380,364,387\n234,376,379,363,387\n235,377,379,364,386\n236,376,380,363,386\n237,375,379,364,386\n238,376,380,364,386\n239,375,380,363,384\n239,373,380,363,385\n240,373,380,364,385\n']___EMG_[b'24730.506,-27360.590,-32930.512,818.275][1225.725,4798.673,-29451.127,-31015.414,-24709.115,-27321.586,-32869.582,900.954][1282.476,4833.363,-29420.908,-31000.014,-24670.313,-27288.215,-32829.438,944.026][1301.050,4855.782,-29400.768,-30981.617,-24641.232,-27282.672,-32823.000,921.182][1272.619,4843.936,-29412.303,-30987.475,-24693.559,-27320.066,-32862.023,891.410][1191.594,4759.200,-29474.328,-31021.918,-24725.924,-27365.463,-32903.980,849.634][1235.582,4792.370,-29452.982,-31017.426,-24703.572,-27348.967,-32869.266,847.288][1243.271,4816.801,-29439.840,-31016.486,-24684.617,-27343.760,-32860.395,824.332][1280.062,4838.527,-29424.686,-30994.537,-24682.494,-27368.459,-32877.895,884.749][1228.385,4819.505,-29436.150,-31005.422,-24698.207,-27384.953,-32870.227,929.162][1173.847,4770.622,-29458.168,-31016.510,-24694.742,-27412.066,-32899.063,826.769][1239.605,4783.027,-29462.258,-31031.262,-24706.365,-27424.830,-32890.301,852.138][1216.248,4793.645,-29458.012,-31034.457,-24718.145,-27420.494,-32877.270,904.866][1225.859,4792.080,-29454.055,-31012.328,-24700.576,-27413.072,-32876.621,887.521][1292.333,4826.166,-29426.295,-30998.449,-24682.717,-27401.316,-32850.066,921.607][1205.944,4784.525,-29452.781,-31020.689,-24681.242,-27421.186,-32871.348,856.496][1139.246,4748.717,-29468.092,-31026.119,-24691.838,-27457.754,-32911.848,782.669][1276.642,4815.884,-29432.844,-30998.516,-24683.164,-27434.730,-32868.574,907.213][1262.494,4818.075,-29433.000,-31000.549,-24679.699,-27430.127,-32852.727,912.264][1221.880,4802.160,-29446.098,-31033.451,-24679.074,-27446.734,-32860.082,824.243][1227.223,4802.518,-29440.264,-31027.662,-24698.877,-27454.154,-32866.563,823.572][1216.114,4793.667,-29457.631,-31030.344,-24720.225,-27487.438,-32891.238,886.090][1272.619,4841.522,-29413.039,-30974.398,-24657.215,-27467.924,-32870.855,913.605][1222.775,4799.434,-29426.049,-30977.035,-24624.648,-27470.695,-32875.594,839.599][1174.606,4765.928,-29459.666,-31037.787,-24704.354,-27484.441,-32879.391,799.589][1239.762,4802.183,-29455.127,-31027.617,-24704.176,-27495.551,-32875.234,871.919][1273.468,4816.041,-29454.547,-31022.029,-24701.381,-27508.559,-32879.793,932.559][1181.089,4778.110,-29449.473,-31013.178,-24687.098,-27509.432,-32883.148,870.511][1227.379,4831.218,-29408.592,-30980.947,-24641.568,-27468.125,-32851.832,855.602][1243.115,4820.846,-29440.645,-31031.439,-24682.605,-27495.752,-32879.215,870.310][1198.679,4784.547,-29473.232,-31038.234,-24688.148,-27514.795,-32893.297,864.253][1214.638,4802.541,-29449.383,-31026.813,-24690.229,-27482.855,-32865.445,850.193][1189.783,4784.301,-29449.809,-31012.240,-24660.545,-27487.973,-32887.977,799.254][1242.243,4811.325,-29435.637,-30926.119,-24631.309,-27494.521,-32884.063,852.563][1263.186,4818.857,-29435.102,-30950.459,-24584.012,-27476.641,-32880.465,933.811][1237.035,4838.348,-29414.648,-30961.926,-24643.088,-27447.359,-32848.703,900.887][1220.584,4827.753,-29432.775,-31044.248,-24667.877,-27464.504,-32850.828,839.621][1166.336,4783.229,-29465.164,-31054.908,-24680.729,-27510.102,-32903.598,787.139][1220.651,4801.937,-29468.896,-31046.215,-24722.348,-27525.547,-32899.688,878.155][1274.675,4860.767,-29416.684,-30996.885,-24660.836,-27494.119,-32872.484,897.981][1195.684,4794.695,-29440.645,-31025.494,-24654.957,-27505.229,-32887.887,812.195][1296.088,4848.339,-29439.996,-31049.680,-24657.527,-27497.674,-32858.160,891.745][1229.592,4821.405,-29463.666,-31038.213,-24669.285,-27534.756,-32900.941,868.835][1221.165,4836.806,-29431.637,-30994.516,-24619.148,-27506.592,-32873.918,901.155][1203.798,4802.674,-29448.980,-31046.549,-24681.064,-27512.270,-32876.555,843.711][1161.911,4776.992,-29458.189,-31060.430,-24694.453,-27523.646,-32910.797,780.098][1274.407,4840.024,-29444.891,-31015.928,-24667.742,-27492.779,-32867.949,902.273][1265.511,4857.615,-29456.000,-31005.490,-24652.275,-27488.531,-32867.121,923.731][1224.630,4849.122,-29424.326,-31025.383,-24636.584,-27463.162,-32852.906,886.783][1241.997,4836.336,-29420.080,-31012.396,-24642.932,-27461.621,-32857.758,858.955][1231.983,4841.500,-29437.225,-31033.4', b'30,-24660.680,-27483.234,-32886.477,854.552][1246.244,4858.375,-29426.719,-31008.730,-24648.027,-27469.377,-32877.941,885.978][1240.723,4851.401,-29412.705,-30998.695,-24620.154,-27449.863,-32867.926,865.616][1256.503,4833.274,-29438.186,-31061.949,-24661.729,-27457.688,-32867.590,859.782][1233.526,4805.982,-29479.357,-31066.443,-24634.191,-27449.930,-32867.145,880.368][1235.671,4837.812,-29447.863,-31024.734,-24664.635,-27451.986,-32874.652,908.397][1211.152,4831.374,-29438.990,-31019.951,-24642.619,-27434.553,-32859.098,871.606][1199.596,4810.207,-29450.031,-31035.105,-24630.996,-27432.877,-32864.305,822.030][1219.712,4822.590,-29444.555,-31001.891,-24611.438,-27442.375,-32873.984,852.183][1214.169,4835.643,-29438.387,-30999.387,-24605.045,-27448.098,-32885.023,895.321][1259.096,4844.137,-29437.648,-31042.951,-24662.891,-27432.697,-32860.328,925.541][1235.247,4837.387,-29440.600,-31054.193,-24640.338,-27415.375,-32854.941,864.923][1240.052,4848.540,-29438.051,-31042.525,-24626.033,-27417.855,-32857.375,880.681][1253.911,4839.242,-29448.803,-31033.094,-24634.371,-27436.229,-32877.449,932.515][1232.520,4832.894,-29445.359,-31021.807,-24618.188,-27426.125,-32868.953,910.744][1238.041,4837.096,-29431.121,-31036.826,-24612.086,-27415.822,-32864.418,861.459][1255.587,4857.727,-29419.275,-31023.348,-24595.100,-27400.020,-32857.355,877.217][1247.540,4846.909,-29447.818,-31032.758,-24591.523,-27412.469,-32875.145,904.463][1242.913,4845.165,-29447.170,-31029.182,-24607.057,-27415.732,-32879.125,901.625][1222.395,4826.144,-29444.488,-31038.213,-24619.283,-27403.371,-32867.055,868.164][1241.662,4843.936,-29433.021,-31031.664,-24589.734,-27390.586,-32852.684,885.286][1250.714,4852.854,-29440.063,-31006.719,-24580.346,-27395.840,-32861.938,906.721][1244.344,4836.493,-29454.502,-31015.213,-24594.830,-27409.184,-32880.645,900.775][1264.349,4851.692,-29433.357,-31029.830,-24603.279,-27388.977,-32852.660,907.257][1232.900,4845.232,-29436.330,-31031.484,-24579.117,-27392.754,-32862.809,847.869][1231.223,4841.566,-29454.391,-31031.307,-24597.400,-27400.756,-32881.719,902.698][1253.866,4857.325,-29439.951,-31021.404,-24603.637,-27381.803,-32869.379,937.857][1239.069,4850.910,-29437.045,-31028.557,-24588.326,-27362.268,-32863.477,875.495][1242.377,4844.293,-29443.371,-31040.068,-24582.447,-27353.215,-32856.148,861.436][1243.740,4849.568,-29444.488,-31032.848,-24589.488,-27358.848,-32860.684,914.991][1261.264,4869.238,-29436.486,-31014.631,-24588.930,-27362.557,-32867.434,932.470][1248.971,4863.807,-29432.352,-31012.217,-24572.121,-27352.813,-32863.367,896.886][1232.609,4847.110,-29440.242,-31028.064,-24561.057,-27341.928,-32855.832,864.878][1233.123,4861.571,-29434.498,-31032.580,-24581.375,-27350.533,-32863.344,874.825][1237.527,4873.417,-29435.861,-31029.271,-24609.180,-27367.184,-32882.387,906.207][1255.140,4858.286,-29448.422,-31029.025,-24585.152,-27345.906,-32862.539,914.097][1253.843,4864.030,-29442.588,-31037.184,-24575.496,-27341.457,-32857.129,866.756][1250.222,4865.460,-29453.877,-31049.299,-24571.137,-27349.750,-32867.031,877.664][1246.378,4856.542,-29454.658,-31030.746,-24584.191,-27350.734,-32868.328,926.770][1231.603,4856.162,-29448.400,-31020.465,-24577.307,-27354.779,-32873.984,886.403][1224.093,4855.938,-29445.852,-31039.107,-24566.824,-27344.543,-32864.484,846.639][1221.545,4858.330,-29447.551,-31046.170,-24568.232,-27341.971,-32857.957,852.786][1219.645,4862.488,-29453.184,-31030.703,-24576.928,-27356.434,-32876.285,879.429][1240.030,4864.611,-29452.580,-31022.813,-24570.199,-27351.359,-32865.801,909.627][1235.716,4859.269,-29448.109,-31031.619,-24548.271,-27334.328,-32845.352,864.208][1228.988,4857.213,-29451.238,-31042.861,-24553.457,-27326.527,-32840.344,863.336][1245.484,4878.402,-29439.258,-31020.242,-24557.346,-27330.795,-32845.461,908.911][1242.176,4876.480,-29445.002,-31021.336,-24572.301,-27344.252,-32861.488,908.420][1228.407,4854.955,-29457.520,-31044.672,-24572.545,-27352.432,-32870.875,860.900][1214.057,4851.982,-29455.172,-31046.305,-24555.156,-27341.301,-32852.438,843.599][1233.436,4870.087,-29450.635,-310']
INDEX_b'2.80574893951416'___FLEX_[b'241,374,380,363,386\n242,373,380,364,385\n241,372,379,363,385\n243,371,379,363,385\n244,371,380,363,384\n244,371,379,363,384\n246,370,380,363,383\n246,370,380,363,384\n246,370,380,363,384\n248,369,380,363,384\n248,368,380,362,383\n250,368,379,363,383\n250,367,381,363,383\n251,367,380,362,384\n252,366,380,363,383\n253,365,380,363,383\n254,366,379,363,382\n254,365,380,363,382\n255,365,379,363,382\n256,364,380,363,382\n257,363,379,362,383\n256,365,379,362,382\n258,363,380,362,382\n259,362,380,363,382\n260,362,381,363,382\n259,362,380,362,383\n260,361,380,362,382\n261,361,380,362,382\n262,361,380,362,383\n263,360,379,362,381\n264,359,380,362,382\n265,359,380,362,382\n266,359,380,362,380\n265,358,380,362,381\n266,357,380,362,382\n267,358,380,362,382\n267,357,380,362,381\n267,357,380,362,382\n268,356,379,362,381\n270,356,379,362,381\n270,355,379,362,380\n270,355,380,362,381\n271,354,380,362,381\n272,353,380,362,382\n272,353,380,362,381\n273,353,380,362,381\n273,352,379,362,381\n275,351,379,362,381\n275,352,380,362,380\n276,351,380,362,380\n', b'277,351,380,361,381\n277,351,380,362,380\n278,350,379,361,380\n278,350,379,362,380\n279,349,379,362,380\n280,349,380,362,380\n280,349,379,361,379\n279,349,379,361,380\n281,349,379,361,380\n282,347,380,361,380\n282,348,379,361,380\n283,348,379,361,380\n283,346,380,361,379\n283,347,380,361,379\n285,347,380,361,379\n285,346,380,362,380\n285,347,380,361,380\n285,347,380,362,379\n285,347,379,361,379\n287,347,379,361,379\n286,347,380,361,379\n287,346,380,362,380\n287,346,379,361,379\n288,346,379,361,379\n288,346,379,361,379\n289,346,380,361,379\n288,346,379,361,379\n289,346,379,361,379\n289,346,379,361,379\n290,346,379,361,378\n290,345,379,361,379\n291,346,379,361,378\n291,346,379,361,379\n291,346,379,361,379\n291,344,379,361,378\n292,346,379,361,379\n293,345,378,361,379\n293,346,380,361,379\n293,346,379,361,379\n293,346,378,361,380\n294,345,380,361,379\n294,346,379,361,379\n295,346,380,361,379\n295,345,379,361,380\n296,345,379,361,378\n296,345,380,361,379\n296,345,380,361,379\n296,345,380,361,378\n297,345,379,361,378\n297,345,379,361,379\n', b'298,345,379,361,378\n298,345,379,361,378\n298,344,378,360,379\n299,345,379,361,378\n299,345,379,361,379\n300,345,379,360,378\n299,345,379,361,379\n301,344,378,360,378\n300,343,379,360,379\n302,344,379,361,379\n301,344,379,360,379\n303,344,380,361,378\n303,342,379,361,377\n303,344,379,360,378\n304,344,379,360,378\n304,344,379,361,379\n304,344,379,360,378\n305,343,378,361,378\n304,343,379,361,378\n306,343,378,361,378\n305,343,379,360,378\n307,343,379,361,378\n306,343,379,360,378\n307,343,379,360,378\n307,343,379,360,378\n307,343,378,361,379\n308,343,379,360,378\n308,343,379,360,378\n308,342,379,360,378\n309,342,379,361,378\n309,342,379,360,379\n309,342,379,360,378\n310,342,379,361,378\n310,341,378,360,378\n311,341,379,360,378\n312,341,379,360,379\n310,342,379,360,378\n312,340,379,361,378\n311,341,379,360,378\n312,341,379,360,378\n313,340,379,360,377\n313,341,379,360,378\n314,341,380,360,379\n313,340,379,360,378\n314,341,379,360,379\n315,340,379,361,378\n315,341,380,360,378\n316,340,379,360,379\n315,340,379,360,378\n316,340,378,360,378\n', b'317,340,380,360,379\n317,339,378,360,379\n318,340,379,360,378\n318,339,379,360,378\n318,339,379,360,378\n318,339,380,360,378\n319,339,379,360,379\n319,339,379,360,378\n319,339,379,361,378\n320,338,380,361,378\n320,338,379,361,378\n320,338,380,360,378\n320,337,379,360,377\n321,338,380,359,378\n321,338,380,360,377\n322,337,380,361,379\n321,337,380,360,378\n322,337,379,360,377\n323,337,380,360,378\n323,337,380,360,378\n323,337,380,360,378\n324,336,381,360,378\n325,336,380,361,378\n324,336,381,360,378\n325,336,380,360,378\n325,336,381,360,378\n325,335,380,361,378\n326,335,380,360,378\n325,335,381,360,378\n326,334,381,360,378\n327,333,381,360,378\n326,335,382,361,379\n327,333,381,360,378\n327,333,382,361,378\n327,332,381,361,379\n328,332,381,361,378\n328,331,382,360,378\n328,331,381,360,378\n328,331,382,360,378\n329,330,380,360,378\n329,330,381,360,378\n329,330,382,360,379\n329,329,382,360,378\n330,329,382,360,377\n329,329,382,360,378\n330,328,382,360,378\n329,329,382,360,379\n331,327,380,360,378\n330,327,382,361,378\n331,326,382,361,378\n']___EMG_[b'30.680,-24546.818,-27348.006,-32851.184,901.088][1252.502,4873.351,-29452.133,-31030.344,-24565.951,-27364.324,-32864.730,920.065][1208.693,4869.059,-29444.221,-31037.676,-24563.092,-27356.277,-32854.336,867.069][1203.820,4857.995,-29447.752,-31040.270,-24540.762,-27340.988,-32842.402,849.634][1190.946,4861.862,-29446.365,-31026.521,-24534.279,-27336.674,-32848.816,850.909][1229.994,4881.062,-29440.197,-31015.369,-24537.432,-27344.207,-32856.637,910.834][1215.756,4867.047,-29448.244,-31031.037,-24545.813,-27341.436,-32853.734,878.379][1181.826,4843.064,-29462.973,-31058.127,-24549.232,-27343.715,-32859.723,824.802][1190.163,4856.922,-29456.223,-31049.076,-24548.205,-27348.855,-32869.781,836.805][1225.792,4876.167,-29449.854,-31028.869,-24536.426,-27342.775,-32857.039,924.490][1220.606,4877.396,-29446.992,-31026.277,-24543.287,-27328.783,-32851.543,903.413][1194.902,4862.532,-29448.355,-31033.586,-24526.613,-27317.520,-32852.168,839.219][1211.375,4878.268,-29437.068,-31028.824,-24516.777,-27306.074,-32847.094,870.578][1218.997,4885.488,-29440.689,-31020.174,-24534.146,-27306.947,-32854.180,904.284][1212.560,4876.837,-29447.193,-31025.605,-24527.395,-27291.725,-32848.703,889.108][1199.462,4875.586,-29435.102,-31027.596,-24510.297,-27274.111,-32844.324,856.876][1207.508,4881.822,-29430.965,-31020.287,-24504.484,-27268.725,-32849.598,864.633][1214.482,4876.234,-29451.104,-31024.131,-24529.117,-27279.365,-32866.094,893.243][1199.439,4866.556,-29461.588,-31030.121,-24536.648,-27269.061,-32859.813,899.121][1197.852,4877.128,-29437.381,-31029.809,-24513.873,-27242.238,-32842.668,863.023][1201.719,4879.229,-29439.281,-31034.949,-24508.977,-27234.684,-32845.039,863.493][1210.481,4886.382,-29452.311,-31035.262,-24527.307,-27245.076,-32861.891,896.283][1228.362,4889.354,-29449.563,-31024.600,-24524.199,-27251.066,-32869.043,912.801][1199.238,4868.053,-29451.238,-31030.568,-24507.727,-27239.533,-32854.023,865.012][1186.922,4873.708,-29439.906,-31026.656,-24499.053,-27233.387,-32845.039,845.231][1204.111,4892.976,-29432.262,-31013.736,-24502.182,-27243.580,-32848.926,899.233][1239.047,4903.771,-29430.229,-31000.750,-24502.719,-27255.963,-32853.418,938.550][1215.912,4887.790,-29444.152,-31023.818,-24502.674,-27265.082,-32855.656,878.625][1206.949,4880.615,-29445.092,-31032.781,-24492.773,-27266.355,-32847.543,864.990][1205.720,4883.565,-29439.393,-31014.654,-24486.268,-27275.051,-32844.902,901.870][1225.792,4895.210,-29442.477,-31012.463,-24501.221,-27305.650,-32864.977,932.582][1230.262,4900.195,-29434.072,-31012.285,-24488.348,-27304.152,-32854.539,912.957][1199.015,4893.825,-29429.088,-31016.264,-24472.143,-27295.234,-32839.250,866.041][1200.490,4896.820,-29425.332,-31005.533,-24473.885,-27310.770,-32847.363,869.572][1208.916,4895.703,-29444.107,-31011.859,-24493.488,-27334.148,-32863.656,915.438][1197.137,4890.539,-29445.113,-31015.480,-24490.336,-27340.160,-32863.145,908.040][1193.024,4887.946,-29436.396,-31018.119,-24469.840,-27341.568,-32860.438,846.751][1211.487,4900.910,-29428.797,-31013.090,-24462.508,-27338.977,-32853.262,883.631][1229.458,4904.040,-29441.225,-31005.980,-24486.760,-27346.912,-32854.203,940.718][1220.226,4902.073,-29437.068,-31009.490,-24480.680,-27349.570,-32849.887,924.893][1207.642,4903.146,-29423.076,-31010.854,-24462.016,-27343.760,-32838.867,877.149][1197.361,4891.209,-29436.643,-31023.684,-24473.035,-27359.719,-32843.406,868.902][1203.999,4899.010,-29443.482,-31019.191,-24490.336,-27380.752,-32867.570,899.881][1225.255,4908.331,-29439.951,-31005.758,-24483.004,-27368.346,-32855.141,929.967][1200.311,4889.958,-29439.861,-31015.771,-24472.119,-27356.008,-32848.168,875.160][1200.132,4893.445,-29435.145,-31015.973,-24458.574,-27345.637,-32840.949,878.021][1229.525,4918.859,-29422.428,-30994.895,-24474.801,-27348.141,-32847.543,920.087][1230.866,4920.356,-29428.105,-31001.131,-24499.166,-27357.283,-32860.148,934.325][1212.515,4911.438,-29425.199,-31010.965,-24483.363,-27343.246,-32846.984,892.349][1207.240,4905.828,-29422.473,-31010.451,-24473.125,-27336.004,-32840.230,864.633][1215.510,4909.516,-29428.172,', b'-31004.082,-24484.078,-27347.604,-32859.207,893.198][1218.796,4908.532,-29444.555,-31006.025,-24496.104,-27354.824,-32862.203,922.546][1210.928,4909.695,-29430.965,-31009.334,-24485.195,-27339.535,-32842.133,883.587][1205.228,4904.777,-29422.762,-31013.736,-24475.674,-27324.939,-32820.070,861.213][1205.184,4896.462,-29442.074,-31022.678,-24488.838,-27332.674,-32824.965,884.548][1211.710,4905.873,-29448.578,-31013.670,-24497.869,-27341.367,-32834.176,921.719][1215.957,4906.744,-29432.910,-31005.914,-24482.199,-27325.543,-32815.801,914.700][1210.548,4908.242,-29418.852,-31005.199,-24466.756,-27317.430,-32814.527,868.902][1211.621,4915.104,-29419.500,-30998.381,-24458.529,-27324.984,-32829.727,872.321][1225.390,4919.149,-29426.539,-30997.576,-24490.516,-27331.914,-32832.164,914.812][1223.892,4915.484,-29427.344,-30999.053,-24488.816,-27324.246,-32823.445,906.117][1194.723,4899.748,-29433.045,-31016.531,-24479.785,-27320.850,-32826.508,855.267][1220.539,4899.704,-29440.645,-31030.434,-24495.410,-27331.355,-32834.129,878.178][1228.854,4913.226,-29439.369,-31013.492,-24502.607,-27338.283,-32841.195,908.017][1167.409,4904.062,-29437.672,-31002.316,-24493.242,-27331.578,-32845.707,860.922][1193.896,4902.989,-29426.428,-31006.406,-24476.813,-27308.959,-32820.785,861.749][1204.178,4898.474,-29436.285,-31020.152,-24480.232,-27310.008,-32820.629,856.742][1188.397,4897.021,-29450.076,-31021.225,-24498.719,-27334.484,-32854.113,868.097][1217.298,4916.065,-29433.535,-31002.025,-24492.146,-27324.381,-32842.938,918.388][1217.745,4922.994,-29409.441,-30989.172,-24474.980,-27296.441,-32810.168,887.007][1197.025,4919.284,-29408.682,-30992.793,-24465.480,-27289.109,-32808.762,849.970][1200.043,4907.124,-29438.766,-31009.154,-24485.330,-27301.201,-32823.180,883.810][1225.501,4918.591,-29430.094,-30987.809,-24483.586,-27307.684,-32832.430,916.444][1217.902,4918.009,-29421.354,-30990.850,-24461.123,-27296.754,-32828.676,870.578][1194.432,4910.365,-29426.049,-31012.553,-24477.305,-27305.023,-32836.367,830.926][1190.946,4905.649,-29436.039,-31014.922,-24483.340,-27317.430,-32846.043,862.353][1193.896,4903.928,-29450.166,-31014.475,-24495.209,-27338.352,-32872.195,884.213][1193.650,4893.199,-29446.455,-31018.678,-24512.576,-27318.814,-32845.688,878.602][1216.270,4906.118,-29426.473,-31005.557,-24479.607,-27284.707,-32816.359,867.359][1201.652,4911.170,-29424.773,-30998.627,-24475.629,-27293.916,-32831.625,863.694][1235.806,4925.944,-29423.455,-30992.906,-24486.045,-27299.102,-32828.766,940.338][1205.921,4921.474,-29423.857,-30999.299,-24483.496,-27298.318,-32832.676,898.115][1178.965,4911.259,-29420.840,-31009.334,-24475.293,-27291.904,-32831.828,841.297][1203.798,4912.779,-29419.857,-31000.461,-24468.789,-27288.998,-32832.188,878.602][1210.302,4919.239,-29427.143,-30992.838,-24477.887,-27299.480,-32844.637,908.800][1228.631,4920.803,-29429.311,-30999.611,-24481.307,-27292.619,-32836.543,933.856][1194.365,4904.084,-29431.166,-31016.510,-24484.391,-27289.064,-32836.477,860.609][1214.571,4917.451,-29417.555,-31000.191,-24468.186,-27277.555,-32832.500,873.573][1225.859,4928.917,-29414.760,-30984.568,-24476.209,-27286.383,-32841.238,921.272][1207.911,4926.928,-29414.314,-30984.859,-24484.637,-27296.016,-32856.215,911.303][1196.623,4920.021,-29407.250,-30988.412,-24466.396,-27275.117,-32834.645,872.791][1183.078,4897.603,-29434.721,-31015.480,-24476.076,-27277.889,-32841.508,847.556][1185.626,4904.777,-29443.549,-31010.676,-24492.615,-27293.357,-32856.371,866.309][1222.506,4923.441,-29424.863,-30986.938,-24484.771,-27286.428,-32850.492,929.922][1233.503,4914.791,-29424.686,-30995.879,-24457.076,-27276.928,-32846.266,922.099][1205.675,4913.941,-29420.080,-31002.896,-24460.787,-27270.760,-32839.160,875.272][1222.976,4927.867,-29418.381,-31001.488,-24497.221,-27280.795,-32846.445,915.125][1214.415,4929.074,-29421.020,-30986.535,-24479.340,-27275.096,-32842.355,928.983][1201.987,4921.697,-29420.125,-30997.197,-24471.225,-27268.100,-32836.543,895.701][1180.798,4908.107,-29425.064,-31008.998,-24469.326,-27269.262,-32845.797,843.711][1192.264,4908.800,-29429.']
INDEX_b'3.206576347351074'___FLEX_[b'331,326,382,360,378\n331,325,382,360,378\n331,325,382,360,378\n331,325,382,360,378\n331,325,383,360,377\n332,324,382,360,377\n332,324,382,360,378\n332,324,383,360,379\n331,323,383,360,377\n332,322,383,361,378\n333,322,383,361,378\n334,322,383,360,377\n333,321,383,360,377\n333,321,383,361,378\n333,321,383,361,379\n334,321,383,360,379\n333,321,383,360,378\n334,321,384,360,378\n334,320,383,360,377\n334,320,384,360,378\n334,319,384,360,378\n334,319,383,360,378\n335,319,382,360,378\n334,319,382,360,378\n335,319,384,360,378\n335,319,383,361,378\n334,318,384,361,377\n335,318,383,360,378\n335,318,384,360,378\n335,317,384,360,377\n335,316,384,360,377\n335,317,384,360,377\n336,317,384,360,378\n336,316,384,360,378\n336,316,384,360,377\n336,315,384,360,378\n336,314,385,360,377\n337,315,384,360,378\n337,314,385,360,379\n337,313,384,360,378\n337,313,384,360,377\n337,313,384,361,378\n338,313,385,361,377\n337,313,385,360,378\n337,312,384,359,377\n338,312,385,360,378\n337,312,384,360,377\n338,311,385,361,378\n338,312,385,360,377\n337,309,385,360,378\n', b'338,311,385,359,378\n338,311,385,360,377\n338,309,385,360,377\n338,309,384,360,377\n339,309,384,360,378\n339,307,385,360,378\n339,307,385,360,377\n338,306,385,360,377\n339,305,385,360,377\n338,305,385,360,377\n339,301,385,359,377\n339,301,385,360,378\n339,298,385,360,377\n340,300,386,360,377\n339,300,385,360,377\n340,300,385,360,377\n339,299,385,359,377\n341,293,386,360,377\n340,288,385,360,377\n340,286,385,360,377\n340,285,386,360,377\n340,284,386,360,377\n340,279,386,360,376\n341,261,385,360,376\n341,260,385,360,377\n341,259,386,360,377\n341,259,385,360,377\n341,257,386,360,377\n341,257,385,360,377\n341,257,386,360,377\n341,257,386,360,378\n341,256,385,360,377\n341,256,385,359,377\n341,255,385,360,377\n341,255,385,360,377\n342,255,386,360,377\n341,254,386,360,378\n341,253,386,360,377\n341,252,385,360,377\n343,252,385,360,377\n341,252,386,360,377\n342,251,385,361,377\n342,250,386,359,377\n342,251,386,359,378\n342,249,386,359,377\n342,249,385,360,377\n342,248,385,360,377\n343,248,386,360,377\n342,247,386,360,377\n343,245,385,359,377\n', b'343,245,386,360,376\n343,245,386,360,377\n342,244,385,359,376\n342,243,386,360,376\n343,242,386,360,376\n343,241,385,360,376\n343,241,385,360,376\n343,240,386,360,375\n343,239,385,360,375\n343,238,385,360,376\n343,238,386,360,377\n343,237,386,360,376\n343,235,385,360,376\n344,236,386,360,375\n343,234,386,360,375\n344,234,387,360,375\n344,233,385,359,376\n344,232,386,360,375\n343,232,386,360,375\n344,231,385,360,375\n344,229,385,359,375\n344,229,385,360,375\n343,228,386,359,375\n344,228,386,360,375\n344,228,386,360,375\n344,226,385,360,375\n343,226,386,360,375\n344,224,385,360,375\n346,224,386,360,375\n344,223,386,360,375\n344,222,385,360,375\n344,220,386,360,374\n345,219,378,360,375\n344,218,382,359,373\n345,216,382,360,374\n345,215,381,360,374\n343,215,382,360,374\n345,213,382,360,375\n346,213,383,360,374\n345,212,383,360,374\n345,211,382,360,374\n344,210,382,359,374\n345,209,382,360,373\n345,208,382,360,374\n345,207,383,359,374\n345,206,383,360,374\n346,205,383,360,373\n345,204,383,360,374\n346,204,383,359,374\n346,202,384,360,373\n', b'345,202,384,360,373\n345,200,383,360,374\n345,200,384,359,373\n346,198,384,360,373\n346,197,384,360,373\n346,196,384,360,373\n346,195,385,360,373\n346,192,385,360,373\n346,191,384,360,373\n345,191,384,360,373\n346,189,384,360,373\n347,189,385,360,372\n346,188,384,361,372\n346,186,384,360,372\n346,185,383,359,372\n346,185,384,360,373\n346,184,384,360,373\n347,183,384,360,372\n346,183,383,360,372\n347,181,383,360,372\n347,182,384,360,372\n347,181,383,360,372\n347,179,383,360,371\n347,177,383,360,371\n347,178,382,360,373\n347,177,382,360,371\n347,175,382,359,372\n347,176,382,359,371\n347,175,382,359,371\n348,175,382,359,371\n347,175,381,358,371\n347,173,381,359,370\n347,173,380,358,370\n347,173,379,357,371\n347,171,381,357,371\n348,171,382,357,370\n347,171,380,356,370\n347,171,380,356,370\n347,169,379,356,369\n348,169,380,356,369\n348,169,380,355,369\n348,181,380,355,368\n348,179,378,354,368\n348,181,378,354,368\n348,181,379,354,368\n348,181,380,353,367\n348,180,380,353,367\n348,180,381,352,367\n349,179,381,352,368\n347,179,380,351,367\n', b'348,178,380,351,366\n349,179,381,350,367\n348,178,380,350,367\n349,177,380,350,367\n348,177,380,349,366\n348,176,380,348,365\n348,176,381,348,366\n349,175,381,347,365\n349,175,381,347,365\n348,174,381,346,365\n348,175,381,345,365\n349,175,380,345,364\n348,174,380,344,364\n349,173,380,343,364\n349,173,380,343,364\n349,174,380,343,364\n348,173,381,341,364\n349,173,380,342,362\n349,173,380,341,362\n349,173,380,341,362\n349,173,381,340,361\n350,172,380,340,361\n349,172,380,339,361\n349,172,380,339,360\n349,172,380,339,360\n349,173,380,338,360\n349,171,379,337,359\n349,171,380,337,359\n349,172,380,337,359\n349,170,379,337,359\n350,171,380,336,359\n349,169,379,335,358\n350,170,379,335,358\n349,170,380,335,358\n350,170,379,334,357\n350,168,380,334,357\n349,168,379,333,357\n350,169,380,333,357\n350,169,379,333,356\n350,169,378,332,356\n349,169,379,332,355\n350,169,379,331,355\n350,168,378,331,355\n351,165,371,330,355\n350,167,372,330,353\n349,167,372,329,355\n349,167,373,329,354\n349,166,372,330,353\n350,166,373,329,353\n350,166,373,329,353\n']___EMG_[b'512,-30996.414,-24462.174,-27266.178,-32853.375,878.535][1214.840,4924.223,-29425.557,-30974.822,-24460.027,-27269.730,-32864.215,913.851][1192.533,4915.104,-29425.959,-30993.084,-24457.367,-27270.445,-32862.898,879.519][1182.653,4908.600,-29427.211,-31018.006,-24482.334,-27257.146,-32853.664,875.540][1232.565,4927.129,-29414.180,-30999.141,-24478.623,-27236.539,-32828.027,947.245][1232.922,4932.136,-29416.885,-30982.109,-24471.717,-27234.750,-32838.602,960.879][1209.341,4920.290,-29421.197,-30984.434,-24458.820,-27218.656,-32835.160,929.274][1194.343,4915.707,-29413.979,-30995.432,-24450.035,-27206.117,-32832.789,885.062][1204.334,4919.417,-29415.275,-30997.711,-24457.992,-27208.152,-32839.652,894.092][1210.906,4925.207,-29422.428,-30988.770,-24480.992,-27227.375,-32867.344,907.794][1191.594,4913.293,-29432.127,-30988.770,-24460.451,-27219.172,-32866.695,909.649][1188.666,4910.924,-29419.053,-30993.867,-24433.496,-27192.350,-32833.617,902.362][1200.914,4909.292,-29424.773,-31003.969,-24462.844,-27199.994,-32846.512,899.300][1213.633,4919.730,-29427.545,-30991.922,-24466.285,-27207.414,-32858.875,935.309][1210.392,4921.004,-29429.803,-30991.363,-24461.748,-27209.225,-32859.121,930.324][1200.579,4914.389,-29419.141,-30991.027,-24443.309,-27205.402,-32851.273,881.575][1195.327,4905.023,-29426.830,-31007.992,-24455.646,-27209.246,-32851.117,890.918][1200.758,4919.239,-29428.307,-30998.023,-24451.488,-27196.842,-32842.961,925.697][1244.456,4933.075,-29423.768,-30985.953,-24449.230,-27216.020,-32854.582,958.733][1185.782,4920.803,-29420.080,-30985.061,-24435.686,-27212.846,-32851.004,886.604][1199.462,4921.765,-29410.447,-30984.545,-24423.057,-27194.383,-32828.496,894.874][1194.052,4922.994,-29418.092,-30988.928,-24456.563,-27216.623,-32848.594,911.370][1214.571,4937.031,-29416.035,-30975.627,-24451.891,-27223.910,-32851.273,948.675][1206.905,4932.158,-29413.375,-30985.730,-24436.848,-27217.539,-32849.688,911.638][1187.123,4918.814,-29416.639,-30994.023,-24427.371,-27213.338,-32854.223,846.863][1185.984,4903.548,-29440.979,-31008.439,-24459.715,-27235.689,-32876.063,866.957][1214.080,4933.097,-29421.533,-30978.734,-24445.342,-27227.934,-32860.953,970.200][1216.471,4934.952,-29414.270,-30974.131,-24425.695,-27216.131,-32849.777,957.392][1196.109,4916.758,-29422.314,-30992.078,-24407.746,-27196.461,-32837.574,909.470][1191.102,4916.601,-29426.004,-30988.145,-24387.697,-27204.285,-32844.973,907.213][1211.822,4935.645,-29416.459,-30959.893,-24404.215,-27234.326,-32851.652,947.781][1207.620,4935.511,-29415.162,-30970.867,-24413.781,-27255.963,-32857.152,925.049][1164.861,4917.071,-29427.770,-30998.359,-24412.328,-27254.777,-32861.801,849.947][1190.387,4924.156,-29421.422,-30990.045,-24417.021,-27263.986,-32846.914,901.044][1253.240,4935.243,-29433.045,-30986.244,-24410.920,-27279.477,-32845.172,1006.454][1240.052,4938.350,-29430.631,-30989.105,-24430.656,-27302.789,-32861.355,974.782][1177.624,4940.875,-29405.105,-30973.057,-24391.832,-27287.188,-32839.652,871.942][1174.450,4935.377,-29402.691,-30962.619,-24371.291,-27275.430,-32826.195,882.268][1193.896,4943.468,-29409.105,-30960.451,-24396.123,-27302.477,-32849.730,937.164][1198.232,4949.995,-29409.172,-30966.217,-24422.008,-27315.664,-32859.074,925.921][1174.606,4930.705,-29419.254,-30985.574,-24412.195,-27304.576,-32849.621,872.970][1186.319,4927.934,-29419.744,-30977.975,-24382.758,-27284.527,-32844.836,909.180][1234.867,4952.900,-29405.105,-30953.521,-24357.344,-27309.160,-32844.570,970.736][1225.121,4957.594,-29407.541,-30954.035,-24397.197,-27322.973,-32860.887,950.195][1221.791,4952.811,-29402.914,-30965.971,-24386.803,-27311.283,-32835.695,939.533][1204.111,4934.729,-29415.588,-30982.668,-24386.109,-27318.949,-32833.480,895.165][1185.648,4926.079,-29430.965,-30983.496,-24391.184,-27331.533,-32862.785,903.547][1202.568,4924.268,-29443.818,-30981.283,-24407.479,-27367.787,-32879.059,934.079][1175.411,4933.611,-29420.371,-30970.129,-24398.246,-27361.418,-32873.918,912.488][1163.922,4931.465,-29413.799,-30983.674,-24400.527,-27311.395,-32836.543,870.131][1210.593,4937.076,-2', b'9425.199,-30982.355,-24401.443,-27313.697,-32844.836,899.457][1265.399,4956.901,-29421.020,-30969.994,-24412.238,-27325.723,-32851.051,1010.902][1222.953,4958.645,-29401.842,-30947.129,-24368.766,-27300.844,-32846.000,976.436][1134.217,4933.857,-29397.975,-30944.781,-24328.465,-27302.744,-32853.465,842.549][1149.751,4909.091,-29441.248,-31001.512,-24436.961,-27368.324,-32907.043,831.507][1232.542,4944.854,-29422.918,-30962.551,-24429.563,-27336.094,-32859.680,963.852][1206.860,4961.081,-29395.984,-30932.713,-24352.582,-27299.793,-32840.055,1000.643][1183.145,4960.254,-29385.367,-30945.229,-24367.357,-27284.752,-32839.113,920.467][1210.414,4947.514,-29408.256,-30967.066,-24396.191,-27255.939,-32819.824,940.964][1222.037,4962.042,-29401.527,-30943.217,-24408.998,-27306.254,-32843.340,974.827][1154.333,4936.740,-29423.969,-30968.943,-24433.875,-27325.789,-32879.773,891.723][1129.568,4918.009,-29436.688,-30991.564,-24421.693,-27320.693,-32877.090,842.638][1223.512,4946.016,-29407.430,-30962.797,-24392.771,-27302.342,-32826.172,967.562][1249.731,4960.813,-29402.914,-30929.984,-24344.736,-27289.400,-32847.473,989.601][1198.992,4962.981,-29400.344,-30925.648,-24392.949,-27318.793,-32861.668,961.863][1218.975,4972.950,-29388.564,-30940.469,-24396.750,-27298.988,-32838.891,934.772][1244.299,4969.217,-29395.537,-30949.141,-24376.498,-27290.943,-32831.941,933.118][1214.102,4949.682,-29419.275,-30959.938,-24422.164,-27323.799,-32864.371,976.302][1176.864,4956.477,-29406.379,-30912.328,-24357.410,-27288.842,-32847.520,971.921][1169.689,4951.224,-29393.369,-30911.611,-24292.010,-27271.898,-32853.957,914.611][1201.876,4950.353,-29405.217,-30977.461,-24445.477,-27329.455,-32874.320,901.960][1205.899,4956.678,-29420.393,-30963.535,-24425.248,-27315.820,-32860.551,925.273][1182.407,4956.521,-29427.904,-30960.295,-24460.229,-27336.271,-32886.301,927.933][1143.694,4949.079,-29410.715,-30962.865,-24430.857,-27299.883,-32862.828,913.806][1216.002,4961.059,-29395.002,-30955.443,-24402.986,-27263.182,-32831.223,937.231][1264.192,4989.669,-29394.645,-30945.787,-24385.797,-27250.553,-32841.508,987.187][1242.332,4973.621,-29403.295,-30939.463,-24403.834,-27259.270,-32876.332,977.129][1299.709,4936.673,-29430.406,-30969.771,-24411.926,-27274.604,-32885.203,1004.689][1127.288,4913.137,-29429.379,-30976.588,-24428.041,-27249.256,-32866.965,904.016][1205.608,4973.777,-29372.449,-30917.514,-24390.313,-27201.088,-32835.516,976.950][1172.036,4952.767,-29402.109,-30932.600,-24386.088,-27202.229,-32873.582,930.816][1137.681,4941.948,-29419.119,-30952.963,-24410.496,-27252.744,-32878.520,903.905][1133.077,4929.610,-29415.789,-30938.256,-24300.816,-27173.506,-32846.559,895.858][1210.593,4976.191,-29388.877,-30929.270,-24390.871,-27202.877,-32848.637,911.079][1243.606,4993.379,-29417.576,-30961.010,-24453.857,-27257.035,-32876.957,939.779][1167.499,4960.947,-29406.154,-30952.338,-24436.781,-27263.293,-32889.293,935.197][1167.096,4943.423,-29400.523,-30937.295,-24385.506,-27249.436,-32839.988,943.691][1232.989,4947.201,-29420.438,-30966.240,-24351.889,-27270.715,-32862.113,944.786][1309.678,4984.126,-29395.248,-30933.494,-24389.508,-27270.602,-32859.723,1012.981][1182.094,4988.060,-29370.951,-30902.113,-24424.041,-27283.588,-32866.832,971.362][1079.433,4911.527,-29437.135,-30975.449,-24427.148,-27257.594,-32905.051,823.483][1214.951,4962.154,-29411.967,-30971.693,-24395.498,-27197.736,-32836.188,906.162][1234.129,4972.078,-29397.170,-30936.311,-24389.238,-27245.635,-32857.309,982.828][1138.084,4951.425,-29403.473,-30909.801,-24318.607,-27252.498,-32896.289,911.035][1172.282,4961.059,-29385.301,-30890.602,-24296.211,-27249.211,-32868.887,922.144][1170.538,4941.903,-29406.535,-30936.535,-24361.367,-27274.424,-32862.965,905.804][1221.635,4967.049,-29407.318,-30956.807,-24420.219,-27256.453,-32855.117,925.295][1188.666,4941.590,-29441.203,-30969.615,-24414.162,-27300.219,-32894.031,924.155][1205.787,4942.395,-29428.082,-30953.746,-24375.090,-27293.871,-32884.867,942.327][1233.280,4965.239,-29397.371,-30939.193,-24324.822,-27235.510,-32832.387,950.642][1234.062,498']
INDEX_b'3.607501983642578'___FLEX_[b'350,165,372,328,353\n350,165,373,328,352\n350,166,373,328,353\n350,164,373,327,352\n349,165,372,327,352\n350,165,372,327,352\n350,165,373,327,351\n350,165,372,327,351\n350,165,372,326,351\n349,164,372,326,351\n350,165,372,326,351\n350,165,372,326,351\n350,165,371,326,351\n350,165,371,326,351\n350,165,371,325,351\n350,165,371,326,350\n350,165,372,325,349\n350,165,371,325,350\n350,165,372,326,349\n350,165,372,325,350\n350,165,372,324,349\n349,166,371,326,349\n350,164,372,325,349\n350,165,374,325,349\n350,166,374,325,349\n350,165,374,326,349\n350,164,373,325,350\n350,166,373,324,349\n349,165,374,324,349\n350,166,375,325,349\n350,166,374,325,350\n350,165,374,325,349\n351,166,374,325,349\n350,166,374,325,349\n350,167,374,326,349\n350,166,374,325,348\n350,165,375,325,349\n349,166,374,325,348\n350,168,375,326,349\n350,167,374,325,349\n350,168,375,326,348\n350,167,374,326,349\n350,167,375,327,349\n350,167,375,326,349\n350,169,375,326,348\n350,168,374,326,349\n350,168,374,326,348\n350,168,374,326,348\n350,170,374,327,349\n350,169,375,328,349\n', b'351,169,375,327,349\n350,169,375,327,349\n350,170,374,328,349\n350,169,374,328,348\n350,171,374,329,349\n350,171,375,328,349\n350,170,374,329,350\n350,171,375,329,350\n350,171,374,329,350\n350,171,375,329,350\n350,171,374,329,350\n350,172,375,330,351\n350,172,375,330,350\n349,173,375,330,351\n350,172,375,331,351\n351,172,375,331,354\n350,172,374,331,350\n351,175,375,331,351\n350,173,374,331,351\n351,173,375,332,351\n351,173,375,332,351\n351,174,375,332,351\n350,175,375,333,351\n350,175,375,333,351\n351,175,375,334,352\n351,175,375,334,352\n351,176,375,334,351\n351,176,375,335,352\n350,178,374,334,352\n351,177,376,335,352\n350,177,375,336,353\n351,179,375,336,353\n351,179,375,336,352\n351,179,375,336,352\n351,180,374,338,353\n351,181,375,337,353\n351,180,374,338,353\n351,181,375,338,353\n351,183,375,339,353\n351,184,375,339,354\n351,183,376,339,354\n352,185,375,340,355\n351,185,375,340,355\n352,186,376,341,354\n351,186,375,342,354\n351,187,375,342,355\n352,187,376,342,355\n352,189,375,342,355\n352,189,375,343,356\n351,190,376,344,356\n', b'351,191,376,344,356\n352,192,376,344,356\n352,192,376,344,356\n352,194,376,344,357\n351,196,376,345,357\n352,197,375,345,357\n352,198,376,345,357\n352,199,376,346,358\n352,201,376,346,358\n351,202,376,347,358\n352,204,376,347,357\n352,205,376,347,358\n352,207,376,347,358\n352,208,377,348,359\n352,209,376,348,358\n352,210,376,349,358\n351,211,376,349,359\n352,212,376,349,360\n351,211,377,349,359\n352,209,376,349,360\n352,207,377,350,360\n352,209,377,350,361\n351,211,376,350,360\n352,211,377,351,360\n352,213,376,351,360\n351,214,376,351,361\n352,211,377,350,360\n352,215,377,353,360\n352,217,377,352,360\n352,219,377,352,361\n352,220,376,352,360\n352,211,376,352,361\n351,213,377,352,361\n351,213,377,353,361\n351,215,376,353,362\n351,215,376,353,361\n351,216,377,353,362\n352,217,376,353,362\n352,218,377,353,362\n351,220,377,353,363\n351,220,377,353,361\n352,221,377,353,362\n351,221,377,353,362\n352,223,377,353,363\n351,225,377,353,361\n352,224,377,353,362\n351,225,377,354,362\n351,226,378,354,363\n351,227,377,353,362\n352,227,378,354,362\n', b'351,228,378,353,363\n351,228,375,353,362\n351,229,378,353,363\n351,230,377,354,363\n351,229,377,354,362\n351,231,377,354,363\n350,231,377,354,363\n350,232,377,355,363\n351,232,377,354,364\n351,233,377,355,363\n351,235,377,355,364\n352,255,376,355,363\n350,258,376,355,363\n351,261,376,354,363\n351,262,377,355,362\n351,265,376,355,363\n350,265,376,355,364\n351,268,376,355,364\n350,268,376,354,364\n351,270,376,355,363\n350,271,377,355,364\n351,272,376,355,363\n350,273,377,355,364\n350,274,376,355,363\n350,275,376,355,363\n350,277,376,355,363\n350,277,376,355,365\n350,278,376,355,364\n350,280,376,355,364\n350,280,376,356,364\n350,280,376,355,363\n351,281,376,355,364\n350,282,376,355,364\n351,282,376,355,364\n350,283,376,356,364\n350,284,375,355,364\n349,285,376,355,364\n350,285,376,356,365\n349,286,376,356,366\n350,286,375,356,365\n350,287,375,356,365\n350,287,376,356,365\n349,288,375,356,365\n350,289,374,356,365\n349,290,375,356,365\n350,291,374,357,365\n349,291,374,356,365\n349,291,373,356,365\n349,293,374,355,365\n349,293,374,356,365\n', b'349,295,374,355,365\n349,295,374,356,365\n350,296,374,356,365\n349,297,373,356,365\n349,297,374,356,366\n350,297,373,356,366\n349,298,373,356,366\n349,298,373,357,366\n349,300,373,356,366\n349,300,373,356,367\n349,300,373,357,367\n349,301,374,357,366\n348,302,373,356,366\n348,302,373,356,366\n349,303,373,357,367\n349,303,371,356,366\n349,304,373,356,366\n348,304,372,357,367\n348,304,372,356,367\n348,305,372,356,366\n348,305,372,356,366\n348,306,372,357,367\n348,306,372,357,366\n349,306,372,357,367\n347,307,371,357,367\n348,307,371,357,367\n349,308,372,357,366\n349,308,372,357,368\n348,309,372,357,367\n349,308,371,357,367\n349,309,371,357,368\n348,308,371,357,367\n349,310,371,357,367\n349,310,371,358,367\n349,310,371,357,367\n348,311,371,357,367\n348,311,371,357,367\n349,311,371,357,367\n349,311,371,357,367\n348,312,371,357,368\n348,312,371,358,368\n348,312,370,357,368\n348,312,370,356,367\n349,313,370,357,368\n349,313,370,357,368\n348,313,368,358,368\n348,313,369,357,368\n348,314,369,357,368\n348,315,370,357,368\n348,315,369,357,368\n']___EMG_[b'0.706,-29380.316,-30896.859,-24267.936,-27245.680,-32837.930,920.981][1222.596,4966.066,-29423.031,-30937.652,-24367.625,-27295.145,-32887.797,931.308][1183.346,4983.120,-29393.885,-30900.951,-24339.484,-27313.785,-32875.371,913.382][1173.556,4947.916,-29418.918,-30949.029,-24316.172,-27317.721,-32879.727,872.321][1199.775,4947.268,-29420.572,-30977.572,-24417.738,-27305.270,-32862.004,940.852][1238.622,4968.748,-29415.186,-30971.270,-24434.748,-27323.711,-32869.422,970.200][1197.361,4977.756,-29388.273,-30897.777,-24296.613,-27326.996,-32865.578,948.206][1227.334,4964.501,-29406.066,-30903.297,-24241.338,-27295.078,-32868.531,917.338][1244.053,4979.365,-29416.102,-30988.994,-24448.225,-27305.717,-32834.844,936.627][1179.032,4977.018,-29406.313,-30922.609,-24352.895,-27324.873,-32874.879,886.783][1188.912,4977.756,-29395.023,-30884.119,-24206.178,-27279.588,-32849.398,928.223][1208.916,4983.679,-29398.152,-30961.256,-24420.486,-27282.963,-32834.152,918.701][1174.986,4969.039,-29413.195,-30982.064,-24439.820,-27287.344,-32839.828,884.257][1207.687,4987.881,-29404.031,-30942.279,-24386.535,-27298.721,-32861.512,935.800][1252.793,4996.732,-29406.313,-30933.025,-24354.773,-27306.320,-32865.715,966.892][1216.561,4988.261,-29387.938,-30924.979,-24353.611,-27310.410,-32859.680,896.193][1208.000,4972.168,-29407.385,-30965.367,-24375.135,-27322.928,-32851.543,878.893][1204.737,4968.413,-29419.230,-30948.336,-24350.750,-27345.033,-32848.637,919.730][1193.672,4974.962,-29410.693,-30904.348,-24293.820,-27362.379,-32850.715,946.015][1221.009,4992.843,-29396.656,-30935.014,-24358.818,-27372.639,-32837.863,929.698][1214.437,4987.658,-29402.221,-30951.174,-24339.529,-27360.926,-32836.031,885.040][1226.105,4997.425,-29392.900,-30906.359,-24251.172,-27356.365,-32833.617,913.382][1234.107,5002.007,-29399.203,-30896.234,-24274.016,-27365.732,-32856.438,937.164][1222.730,4990.832,-29407.721,-30948.984,-24427.236,-27373.041,-32851.074,913.471][1221.702,4995.101,-29391.291,-30938.322,-24360.785,-27348.945,-32831.000,883.810][1231.715,4997.760,-29399.561,-30952.695,-24340.064,-27353.773,-32837.750,897.802][1245.484,5009.026,-29403.697,-30942.010,-24374.957,-27370.246,-32857.668,930.972][1243.070,5015.485,-29399.785,-30930.947,-24338.500,-27356.947,-32851.742,917.271][1218.930,4988.909,-29412.414,-30949.275,-24331.527,-27338.150,-32827.246,868.455][1226.708,4997.224,-29395.963,-30908.684,-24329.516,-27331.041,-32823.582,861.973][1254.179,5015.418,-29402.758,-30944.223,-24373.682,-27348.387,-32843.520,897.802][1242.578,5012.803,-29402.578,-30940.758,-24357.611,-27342.418,-32834.801,895.478][1220.360,5003.684,-29395.717,-30937.473,-24348.738,-27331.266,-32831.359,848.226][1231.223,5010.076,-29399.605,-30954.281,-24356.852,-27325.924,-32824.520,849.769][1249.753,5024.024,-29396.633,-30939.395,-24363.982,-27332.047,-32832.902,883.319][1248.546,5016.469,-29406.691,-30934.969,-24365.391,-27329.857,-32834.688,884.704][1229.592,5004.488,-29410.334,-30937.652,-24351.555,-27318.189,-32826.754,831.485][1229.324,5008.266,-29401.930,-30948.270,-24347.643,-27308.332,-32819.156,811.122][1246.601,5017.854,-29406.223,-30946.012,-24362.305,-27320.514,-32832.789,842.415][1252.525,5027.153,-29401.484,-30935.283,-24367.334,-27333.701,-32845.574,852.630][1239.695,5013.116,-29400.455,-30943.844,-24355.801,-27322.973,-32833.234,814.453][1235.448,5007.350,-29408.234,-30950.438,-24340.021,-27306.164,-32812.828,796.504][1244.389,5018.458,-29405.529,-30930.990,-24344.760,-27316.559,-32820.898,824.511][1267.858,5025.812,-29414.135,-30942.838,-24369.637,-27330.393,-32838.445,831.217][1250.334,5023.130,-29409.328,-30950.393,-24364.832,-27320.066,-32826.910,790.939][1226.261,5012.826,-29402.199,-30954.170,-24355.377,-27309.115,-32818.035,744.671][1236.521,5017.050,-29413.084,-30956.518,-24366.664,-27316.646,-32826.465,753.567][1247.764,5026.862,-29416.324,-30945.520,-24377.572,-27325.006,-32834.934,781.775][1241.393,5016.491,-29418.449,-30947.598,-24369.859,-27315.127,-32827.648,759.021][1229.569,5008.042,-29413.531,-30964.385,-24361.770,-27304.152,-32817.188,725.694][1235.135', b',5010.032,-29413.777,-30955.914,-24361.881,-27306.902,-32822.664,737.965][1254.223,5021.096,-29424.037,-30953.299,-24378.867,-27316.803,-32830.555,781.149][1256.034,5019.509,-29419.275,-30955.422,-24378.936,-27311.572,-32830.063,772.946][1230.262,5010.993,-29409.932,-30960.785,-24367.916,-27301.648,-32823.668,730.544][1232.989,5011.484,-29415.006,-30965.994,-24373.838,-27302.119,-32817.547,734.747][1256.749,5023.823,-29417.957,-30956.605,-24384.053,-27311.059,-32827.270,777.461][1257.330,5022.571,-29418.561,-30954.885,-24378.287,-27305.225,-32824.789,785.217][1247.920,5009.428,-29419.477,-30965.480,-24365.502,-27294.250,-32813.297,746.302][1250.044,5010.032,-29418.717,-30966.240,-24363.982,-27294.541,-32816.809,727.214][1253.441,5019.978,-29421.221,-30959.154,-24378.912,-27304.867,-32828.453,759.624][1240.343,5030.104,-29409.910,-30955.287,-24383.271,-27306.275,-32829.258,769.325][1242.556,5026.773,-29403.428,-30959.422,-24366.820,-27291.232,-32814.082,739.575][1239.874,5023.845,-29405.439,-30965.078,-24363.982,-27291.346,-32816.941,726.320][1255.788,5029.209,-29413.979,-30958.328,-24368.408,-27294.430,-32822.777,769.928][1259.051,5033.702,-29418.158,-30964.496,-24378.176,-27299.504,-32827.043,798.158][1241.259,5027.868,-29411.363,-30966.619,-24364.295,-27291.613,-32824.496,754.908][1243.740,5021.900,-29410.604,-30970.777,-24342.412,-27277.375,-32809.633,749.163][1255.006,5018.972,-29426.271,-30971.246,-24369.793,-27290.004,-32823.715,778.019][1255.877,5030.170,-29419.410,-30964.139,-24380.432,-27299.146,-32838.914,794.672][1249.261,5050.488,-29396.543,-30956.025,-24361.992,-27286.338,-32826.082,774.130][1226.172,5019.553,-29416.951,-30981.439,-24353.566,-27277.285,-32813.656,752.717][1251.988,5023.041,-29421.846,-30980.455,-24357.008,-27282.873,-32820.160,779.741][1260.191,5029.679,-29424.752,-30964.520,-24361.656,-27285.980,-32825.324,817.917][1251.563,5029.366,-29416.639,-30965.971,-24352.850,-27281.443,-32824.652,794.694][1256.928,5025.342,-29410.693,-30973.348,-24345.898,-27270.490,-32813.297,776.567][1243.785,5022.839,-29416.482,-30974.465,-24347.865,-27277.756,-32823.020,780.255][1250.111,5035.244,-29412.637,-30953.879,-24348.850,-27287.770,-32839.426,809.424][1251.340,5032.897,-29413.285,-30956.025,-24344.871,-27287.992,-32837.414,811.882][1243.047,5013.250,-29422.516,-30982.602,-24345.721,-27269.596,-32817.633,789.084][1239.270,5018.011,-29420.461,-30988.928,-24349.699,-27273.955,-32827.270,783.406][1253.083,5025.387,-29429.982,-30981.416,-24365.637,-27296.486,-32852.281,808.172][1268.618,5031.914,-29426.115,-30974.152,-24364.988,-27291.791,-32838.691,849.299][1248.032,5025.454,-29414.961,-30980.344,-24350.035,-27278.627,-32825.367,809.714][1239.605,5024.583,-29411.027,-30977.975,-24341.406,-27271.787,-32824.297,787.474][1265.578,5031.914,-29420.750,-30975.314,-24352.492,-27276.816,-32828.945,844.069][1280.286,5036.519,-29423.521,-30969.928,-24357.389,-27283.119,-32833.168,873.752][1249.105,5028.830,-29409.418,-30970.643,-24343.887,-27274.357,-32826.238,833.809][1233.526,5018.324,-29412.973,-30980.232,-24341.563,-27269.775,-32823.133,818.789][1267.255,5024.583,-29425.490,-30981.797,-24355.221,-27281.131,-32834.824,863.090][1272.351,5031.713,-29426.607,-30975.047,-24357.791,-27278.561,-32837.594,877.664][1238.152,5018.167,-29421.041,-30974.777,-24347.576,-27265.797,-32826.820,840.001][1230.374,5017.721,-29418.113,-30992.303,-24350.594,-27267.250,-32831.402,809.535][1236.253,5022.280,-29419.387,-30985.082,-24361.701,-27281.891,-32848.277,826.255][1253.106,5023.353,-29422.852,-30968.900,-24358.416,-27279.275,-32842.332,883.766][1263.388,5030.729,-29411.967,-30966.934,-24355.936,-27268.770,-32826.820,887.364][1239.494,5018.570,-29418.426,-30987.049,-24349.520,-27259.338,-32821.926,836.268][1242.265,5015.172,-29423.813,-30990.379,-24356.672,-27269.307,-32836.836,840.873][1256.168,5028.941,-29418.225,-30969.705,-24360.473,-27282.359,-32846.871,883.095][1247.138,5021.409,-29420.729,-30970.598,-24361.881,-27281.779,-32840.949,875.652][1236.119,5011.551,-29417.732,-30967.000,-24338.367,-27264.188,-32823.824,839.554][1235']
INDEX_b'4.007582426071167'___FLEX_[b'348,315,370,357,368\n348,316,369,357,368\n348,316,369,357,368\n348,317,369,357,368\n348,317,369,357,368\n349,317,369,357,368\n348,318,369,357,368\n349,318,369,357,368\n348,318,369,358,369\n348,319,368,357,369\n348,319,368,357,368\n349,319,368,357,369\n348,320,368,358,369\n348,320,368,358,369\n348,320,368,357,369\n348,320,368,357,369\n348,321,368,357,368\n348,321,367,357,369\n348,322,366,358,369\n349,322,366,357,369\n348,321,366,357,369\n349,322,366,358,369\n347,322,365,357,369\n348,323,366,357,370\n347,322,366,357,369\n348,323,365,357,369\n347,324,365,357,370\n348,323,365,358,369\n347,324,364,358,369\n348,323,364,358,370\n349,325,364,357,370\n348,325,364,358,370\n348,325,364,358,369\n348,325,364,358,370\n348,325,364,357,370\n349,325,363,358,371\n348,326,363,358,370\n349,326,362,358,370\n348,327,362,357,371\n348,327,362,358,370\n348,327,362,358,370\n349,327,361,358,370\n347,327,361,358,371\n348,327,360,357,370\n348,328,361,358,370\n348,328,360,357,371\n347,329,360,358,370\n348,329,359,358,371\n348,329,359,358,370\n349,329,359,358,371\n', b'348,330,358,358,370\n348,330,358,358,371\n349,331,358,358,370\n348,331,358,358,371\n348,331,357,358,370\n348,331,356,358,371\n348,331,357,357,369\n348,332,356,358,371\n348,332,356,358,371\n349,333,356,358,371\n349,333,356,358,371\n348,333,354,357,371\n348,333,355,358,371\n349,333,353,358,372\n349,333,353,358,371\n348,334,352,358,371\n348,334,351,358,371\n348,334,351,358,370\n348,335,350,358,371\n348,335,349,358,372\n349,335,348,358,371\n348,335,347,358,372\n348,336,347,359,372\n349,336,345,359,372\n347,335,344,358,372\n348,336,342,358,372\n348,336,342,358,372\n349,336,341,358,372\n348,336,339,358,372\n348,336,337,358,372\n348,337,336,359,372\n348,337,334,359,373\n348,338,332,358,373\n348,338,330,359,373\n348,338,330,359,373\n348,339,327,358,372\n348,338,325,359,373\n348,339,323,358,373\n348,339,321,359,373\n348,340,320,359,373\n348,340,318,359,373\n348,340,316,359,373\n348,341,314,358,374\n348,341,311,359,374\n348,342,309,359,374\n348,341,307,359,374\n348,341,305,359,374\n349,343,303,359,374\n348,343,301,359,373\n348,343,299,359,374\n', b'348,343,297,360,374\n348,344,295,359,375\n348,345,293,359,375\n348,345,292,360,375\n348,346,290,359,375\n347,345,288,359,374\n348,346,287,359,375\n348,346,286,359,375\n349,347,283,359,375\n347,347,282,359,375\n348,348,280,359,375\n348,349,277,359,374\n347,349,276,359,375\n348,349,274,359,375\n348,350,271,358,375\n348,350,268,359,376\n348,351,266,359,375\n348,351,264,359,377\n348,351,261,359,375\n348,351,258,359,376\n348,352,255,358,375\n349,352,252,358,376\n348,353,250,359,376\n349,353,246,358,377\n348,353,245,358,376\n348,354,241,359,377\n348,354,241,358,377\n348,355,239,359,376\n348,355,236,358,377\n348,355,234,358,377\n349,356,234,358,377\n348,357,231,358,377\n348,357,230,358,377\n347,358,228,358,379\n348,359,227,358,378\n348,359,227,357,378\n349,359,224,357,379\n348,359,223,357,380\n348,360,221,357,379\n349,361,220,357,380\n347,361,219,356,380\n348,362,218,357,380\n348,363,216,357,381\n348,363,214,356,380\n348,364,214,356,381\n348,365,211,356,381\n348,365,210,356,381\n348,365,210,355,380\n349,366,208,355,381\n348,367,208,354,382\n', b'348,367,207,354,382\n348,368,205,353,382\n347,368,205,352,383\n348,369,205,352,382\n348,369,204,352,383\n349,369,204,352,383\n348,369,203,351,383\n348,369,202,351,383\n348,370,202,351,383\n348,370,202,350,383\n349,371,202,351,384\n348,370,201,349,384\n348,371,201,349,385\n348,372,201,349,385\n347,371,201,349,384\n348,371,200,349,384\n348,371,200,349,385\n348,372,200,348,385\n347,372,200,348,385\n348,372,199,347,385\n348,372,199,347,386\n348,372,199,346,385\n348,372,198,345,386\n348,372,199,345,386\n347,373,198,344,386\n348,372,198,344,387\n348,371,197,344,386\n349,373,198,344,387\n348,373,198,343,387\n348,373,197,343,387\n347,374,197,343,388\n348,375,196,342,388\n347,374,197,341,387\n348,374,196,341,387\n348,374,196,341,388\n348,373,196,340,388\n349,374,196,339,388\n348,374,180,339,389\n347,374,179,338,389\n348,374,178,338,389\n348,374,178,337,389\n348,375,179,337,388\n348,374,179,337,390\n348,375,179,337,389\n348,375,178,336,389\n348,374,177,336,389\n348,375,177,335,389\n348,375,178,335,390\n347,375,177,334,389\n348,375,176,334,390\n']___EMG_[b'.157,5002.611,-29434.139,-30999.521,-24356.449,-27270.379,-32830.332,841.677][1257.911,5020.313,-29430.920,-30991.922,-24379.203,-27285.891,-32848.883,871.673][1257.487,5023.174,-29428.328,-30986.893,-24370.420,-27280.303,-32844.859,877.865][1246.244,5016.424,-29422.986,-30996.930,-24355.779,-27261.996,-32821.547,854.328][1256.660,5025.812,-29414.873,-30991.162,-24353.051,-27263.563,-32821.770,857.815][1269.534,5030.215,-29419.186,-30971.717,-24357.232,-27272.525,-32837.035,883.430][1268.551,5023.130,-29428.551,-30980.053,-24357.611,-27267.361,-32832.633,892.595][1239.359,5013.272,-29424.686,-30991.900,-24342.971,-27253.973,-32822.910,840.850][1232.430,5017.653,-29418.873,-30993.934,-24348.246,-27263.986,-32829.840,824.064][1261.935,5028.427,-29417.621,-30979.605,-24359.734,-27274.961,-32836.453,869.997][1255.497,5025.611,-29426.271,-30977.059,-24362.506,-27278.939,-32840.793,879.630][1219.913,5011.909,-29423.701,-30985.574,-24342.479,-27265.908,-32836.969,819.057][1226.440,5010.814,-29417.152,-30984.010,-24330.969,-27258.152,-32830.621,806.764][1267.791,5027.645,-29418.002,-30973.973,-24336.936,-27266.064,-32829.930,869.326][1273.580,5035.401,-29422.158,-30983.361,-24361.926,-27282.605,-32843.316,893.600][1248.479,5028.606,-29414.381,-30984.881,-24349.252,-27272.145,-32833.168,852.875][1226.463,5015.888,-29418.762,-30998.336,-24345.496,-27267.361,-32825.523,823.483][1244.523,5027.712,-29418.404,-30989.955,-24351.846,-27279.768,-32839.496,840.135][1245.193,5021.409,-29434.385,-30982.512,-24357.344,-27286.271,-32849.262,871.182][1217.745,5001.136,-29438.006,-30992.994,-24350.861,-27285.578,-32851.453,830.792][1230.709,5010.210,-29420.572,-30990.850,-24332.377,-27270.334,-32829.840,810.318][1241.148,5008.445,-29432.977,-31000.594,-24350.012,-27274.850,-32829.215,844.918][1252.547,5021.789,-29429.021,-30979.986,-24357.813,-27289.824,-32850.559,878.066][1261.354,5026.125,-29424.506,-30986.021,-24344.223,-27281.779,-32844.883,879.452][1243.495,5015.485,-29426.607,-31001.109,-24331.572,-27266.154,-32828.742,828.981][1239.315,5010.121,-29431.502,-31002.695,-24344.246,-27275.387,-32828.832,829.764][1260.325,5026.326,-29426.539,-30986.893,-24353.633,-27288.775,-32839.047,892.371][1261.711,5038.731,-29414.426,-30973.281,-24345.385,-27285.488,-32837.484,887.722][1252.547,5030.550,-29410.090,-30981.773,-24330.186,-27272.256,-32825.816,840.604][1256.190,5016.111,-29427.791,-30995.543,-24327.369,-27273.016,-32830.801,829.876][1240.701,5005.360,-29453.160,-30999.410,-24344.156,-27293.871,-32857.621,836.313][1230.464,5011.462,-29441.002,-30987.943,-24344.805,-27290.406,-32852.055,858.732][1242.489,5020.828,-29417.689,-30984.971,-24334.545,-27275.877,-32826.418,862.934][1245.573,5023.644,-29416.324,-30996.771,-24335.842,-27282.471,-32829.055,833.362][1267.970,5033.143,-29422.918,-30990.492,-24343.643,-27294.363,-32843.250,869.170][1269.445,5026.661,-29438.453,-30986.021,-24332.107,-27282.293,-32842.914,896.752][1240.589,5014.524,-29437.336,-30995.766,-24297.932,-27262.488,-32834.555,830.837][1218.975,5010.188,-29426.697,-30989.754,-24305.666,-27282.762,-32846.625,790.358][1237.370,5015.262,-29438.721,-31002.293,-24353.611,-27298.498,-32843.293,848.763][1254.559,5010.210,-29452.512,-31000.348,-24340.982,-27292.508,-32848.859,883.631][1207.978,4989.558,-29453.541,-31002.449,-24321.781,-27295.436,-32859.699,818.543][1230.553,5008.244,-29425.422,-30994.113,-24334.365,-27287.881,-32837.551,842.840][1265.287,5026.594,-29425.824,-30999.789,-24336.332,-27276.928,-32823.691,894.606][1240.477,5013.250,-29445.070,-30994.918,-24331.861,-27286.764,-32841.664,888.169][1241.773,5020.917,-29426.920,-30982.512,-24336.891,-27292.061,-32841.797,854.373][1261.622,5038.508,-29402.244,-30978.869,-24340.803,-27291.613,-32823.223,858.195][1270.182,5035.378,-29411.967,-30983.338,-24349.967,-27297.826,-32830.508,876.479][1259.834,5025.030,-29430.742,-30992.346,-24356.561,-27302.297,-32840.031,893.243][1257.375,5020.045,-29434.900,-30984.367,-24337.451,-27291.232,-32837.258,876.568][1256.503,5015.753,-29430.250,-31003.209,-24329.738,-27271.787,-32819.402,854.820][', b'1236.610,5005.807,-29438.387,-31015.189,-24330.855,-27278.516,-32833.906,823.371][1195.908,4974.962,-29475.512,-31025.383,-24323.771,-27292.082,-32864.059,789.262][1145.594,4949.190,-29492.320,-31027.014,-24303.990,-27297.537,-32887.328,753.343][1207.374,4995.034,-29435.547,-30992.570,-24305.486,-27273.129,-32838.309,835.642][1238.398,5003.706,-29434.586,-31003.322,-24325.336,-27263.115,-32810.059,862.844][1273.066,5027.958,-29424.416,-30982.848,-24325.156,-27288.193,-32828.363,921.451][1283.974,5037.882,-29419.789,-30978.779,-24341.406,-27281.176,-32821.344,953.481][1239.829,5023.219,-29413.309,-30973.861,-24323.436,-27279.498,-32823.313,863.738][1195.729,4999.660,-29436.867,-31012.061,-24374.152,-27302.342,-32836.680,790.000][1225.501,5009.138,-29439.080,-30997.979,-24337.518,-27275.676,-32834.020,864.901][1261.085,5034.574,-29415.297,-30958.127,-24321.313,-27284.795,-32842.781,911.929][1221.948,5023.309,-29419.813,-30989.463,-24382.488,-27319.172,-32847.629,856.720][1232.296,5025.320,-29412.682,-30968.096,-24323.727,-27278.000,-32824.922,863.940][1244.880,5006.656,-29444.107,-31005.400,-24286.266,-27225.340,-32814.328,904.530][1232.296,4988.976,-29468.896,-31014.855,-24280.609,-27217.137,-32830.285,881.642][1205.139,5011.775,-29426.428,-30983.338,-24337.764,-27274.313,-32861.801,784.949][1195.684,5008.266,-29423.969,-31015.748,-24389.932,-27291.010,-32851.832,776.924][1264.572,5029.120,-29419.500,-30997.063,-24354.930,-27242.260,-32814.887,906.497][1279.146,5030.506,-29432.150,-30988.547,-24334.611,-27217.852,-32806.102,978.693][1250.580,5021.342,-29426.584,-30973.750,-24312.527,-27203.793,-32808.383,944.652][1257.911,5040.676,-29400.053,-30972.453,-24341.250,-27226.078,-32800.000,923.932][1235.046,5022.683,-29425.512,-31008.350,-24369.703,-27240.383,-32823.914,875.294][1174.271,5000.443,-29452.580,-31009.803,-24377.215,-27267.988,-32874.453,790.000][1111.686,4964.479,-29482.598,-31030.680,-24367.961,-27258.756,-32884.199,781.886][1194.008,4990.452,-29449.361,-30999.209,-24278.508,-27170.355,-32823.043,889.666][1227.401,5015.105,-29427.055,-30981.529,-24276.922,-27161.795,-32821.793,928.111][1272.954,5039.223,-29417.041,-30955.131,-24299.721,-27194.316,-32836.855,960.074][1260.772,5041.414,-29421.422,-30970.711,-24357.434,-27216.311,-32833.930,959.694][1231.335,5035.043,-29416.057,-30999.053,-24381.998,-27179.408,-32808.539,903.525][1202.926,5028.159,-29414.135,-30990.535,-24346.703,-27160.564,-32820.473,865.236][1248.926,5038.508,-29417.846,-30968.273,-24344.045,-27183.453,-32822.328,956.632][1240.142,5018.547,-29444.488,-30975.314,-24279.381,-27120.533,-32823.559,992.842][1192.555,4980.997,-29463.979,-30995.699,-24244.422,-27080.322,-32804.379,951.782][1258.850,5061.016,-29382.395,-30971.426,-24351.242,-27148.449,-32780.801,983.611][1239.292,5041.458,-29422.293,-31005.355,-24370.621,-27141.320,-32814.953,977.464][1210.973,5031.355,-29424.641,-30961.301,-24326.006,-27134.615,-32814.125,983.521][1172.327,5010.635,-29435.994,-30998.828,-24347.576,-27138.682,-32824.742,897.981][1160.883,4990.787,-29448.713,-31024.422,-24344.691,-27146.305,-32839.719,887.051][1244.009,5031.333,-29422.986,-30986.355,-24292.010,-27093.600,-32804.516,1012.579][1208.626,5008.579,-29440.465,-30943.262,-24191.783,-27075.092,-32825.973,978.895][1119.174,4944.049,-29492.164,-30991.699,-24225.691,-27086.223,-32851.477,831.775][1116.090,4955.784,-29471.578,-31026.164,-24311.008,-27111.369,-32837.328,837.028][1214.594,5039.178,-29409.664,-30976.254,-24356.182,-27121.963,-32801.160,950.866][1244.679,5060.591,-29395.449,-30946.525,-24389.887,-27133.496,-32815.645,1052.946][1272.552,5074.918,-29380.898,-30942.994,-24323.234,-27087.385,-32784.934,1084.194][1202.591,4998.766,-29435.324,-30962.508,-24179.715,-27026.543,-32790.656,968.903][1163.364,4976.415,-29442.432,-30918.766,-24126.896,-27034.926,-32826.129,898.674][1214.147,5028.517,-29433.693,-31014.096,-24394.961,-27133.430,-32813.211,966.847][1169.980,5008.311,-29458.168,-31046.146,-24425.449,-27162.486,-32839.563,897.288][1093.179,4964.233,-29468.473,-31031.037,-24376.096,-27196.686,-32876.867,81']
