INDEX_b'0.4019482135772705'___FLEX_[]___EMG_[b'[3675.901,416.569,1120.538,593.595,2497.941,2007.164,-825.673,1708.076][3668.010,407.673,1113.631,611.276,2505.698,2003.677,-834.972,1725.041][3658.891,398.085,1107.775,632.174,2512.917,2004.080,-830.703,1747.817][3668.323,408.366,1113.743,610.806,2506.837,2016.932,-808.328,1742.005][3679.634,425.711,1126.260,591.293,2505.787,2016.708,-807.680,1717.888][3671.564,408.009,1113.161,595.450,2505.787,2011.433,-823.483,1725.286][3663.294,397.258,1104.824,619.635,2509.453,2009.623,-810.251,1758.792][3661.260,400.476,1106.501,603.184,2501.965,1996.659,-831.999,1737.200][3676.616,420.257,1120.851,576.988,2498.322,1998.782,-850.305,1703.829][3682.517,425.935,1127.847,596.747,2508.268,2004.638,-840.135,1720.257][3667.675,407.986,1113.117,613.310,2513.811,2010.606,-817.537,1750.343][3660.299,407.092,1113.854,604.123,2508.491,2010.204,-823.595,1736.149][3684.327,429.601,1125.813,569.701,2498.344,2010.673,-822.075,1729.176][3679.634,417.776,1118.012,568.248,2500.333,2011.389,-821.471,1722.559][3663.138,401.571,1105.629,592.008,2505.049,2000.436,-829.719,1739.033][3665.775,405.081,1108.445,594.735,2507.173,2000.615,-825.159,1750.253][3675.968,423.208,1122.773,569.254,2493.628,1994.893,-848.606,1705.952][3682.338,427.499,1123.712,555.441,2492.644,2005.153,-845.879,1703.538][3674.247,414.714,1114.100,580.654,2506.837,2009.399,-819.951,1743.861][3671.140,409.260,1111.306,593.707,2508.223,2008.036,-799.924,1764.760][3678.896,420.459,1119.219,565.901,2497.181,2005.264,-821.225,1731.657][3682.137,424.862,1121.141,544.846,2491.080,2005.376,-835.151,1709.886][3668.636,407.182,1105.115,561.252,2493.985,2001.263,-833.072,1732.841][3673.196,411.116,1113.072,599.228,2510.771,2004.571,-807.904,1768.604][3681.243,424.281,1124.494,577.256,2499.774,2005.309,-817.604,1741.603][3687.524,433.803,1130.998,552.066,2493.762,2002.336,-837.676,1712.546][3683.366,425.868,1122.996,567.600,2500.110,2005.488,-829.987,1739.927][3670.693,409.953,1111.485,591.070,2508.156,2003.789,-826.098,1761.273][3676.951,421.062,1120.113,574.909,2500.177,2003.856,-821.225,1747.839][3692.463,439.502,1133.211,548.668,2493.359,2009.735,-829.250,1722.828][3689.803,430.025,1123.823,557.810,2498.120,2013.423,-806.719,1752.243][3673.241,409.685,1107.261,581.548,2501.361,2002.336,-808.060,1781.076][3672.794,413.708,1112.223,571.534,2493.628,1991.451,-838.146,1750.656][3697.358,436.105,1130.462,547.707,2489.828,2005.309,-818.677,1740.396][3686.652,429.645,1122.303,548.534,2491.124,2006.762,-813.872,1731.880][3669.955,410.400,1107.149,573.345,2498.187,1998.112,-824.623,1760.826][3674.224,416.078,1112.200,573.501,2493.739,1995.027,-830.300,1765.318][3686.428,432.082,1125.701,547.931,2487.526,2000.839,-830.792,1730.226][3692.262,437.222,1128.741,549.205,2493.784,2009.310,-822.924,1732.104][3685.333,421.621,1114.145,573.076,2499.886,2008.952,-798.047,1781.993][3680.081,415.273,1108.289,574.954,2493.739,1997.486,-809.401,1786.485][3691.167,433.534,1124.494,548.825,2486.721,1999.252,-826.724,1743.548][3694.609,441.358,1130.328,538.990,2489.850,2002.515,-836.916,1722.492][3684.595,425.085,1116.514,567.868,2497.562,2002.694,-817.984,1761.899][3674.873,415.742,1108.177,572.898,2494.924,1991.272,-827.774,1771.175][3687.948,438.586,1128.294,555.284,2490.945,1993.641,-838.280,1738.072][3702.566,450.723,1138.397,543.147,2491.459,2004.840,-826.657,1729.958][3693.402,435.725,1124.695,564.471,2498.657,2010.405,-814.274,1763.061][3681.243,422.470,1114.413,583.626,2504.759,2009.690,-791.878,1787.424][3697.649,441.961,1130.953,566.840,2497.137,2009.221,-786.915,1776.651][3711.842,457.943,1141.191,535.727,2488.956,2002.336,-823.841,1738.005][3691.860,434.920,1120.024,542.209,2487.436,1993.843,-830.255,1743.928][3673.979,417.016,1106.545,568.472,2492.823,1983.360,-842.236,1761.720][3687.836,438.854,1125.053,560.716,2493.248,1993.373,-833.139,1752.064][3703.594,450.388,1133.189,525.490,2487.034,2004.996,-816.487,1730.114][3707.081,445.291,1126.461,531.815,2490.833,2013.043,-803.031,1759.484][3694.453,426.985,1112.156,566.460,2503.239,2010.986,-789.665,1799.695][3689.245,433.244,1120.426,567.734,2496.936,2001.', b'219,-800.662,1773.410][3705.539,457.741,1140.632,535.347,2487.347,1995.899,-834.614,1725.756][3702.678,455.394,1136.117,530.854,2490.722,2003.879,-828.602,1728.550][3689.356,432.484,1119.465,564.516,2504.580,2004.683,-815.973,1768.895][3692.776,438.608,1123.868,565.633,2500.534,2000.548,-819.102,1770.325][3708.490,458.546,1139.112,531.614,2494.656,2012.730,-814.878,1736.954][3716.335,462.547,1139.917,520.818,2497.562,2023.861,-811.011,1741.469][3708.847,447.460,1128.137,561.208,2507.776,2021.134,-785.261,1790.151][3699.303,440.732,1123.376,567.690,2500.110,2001.934,-795.141,1788.318][3707.394,457.943,1138.061,536.688,2492.733,1999.609,-817.068,1736.418][3710.412,463.419,1140.408,517.041,2490.588,2009.601,-825.830,1714.334][3706.165,448.890,1127.623,546.925,2498.791,2003.253,-826.970,1760.267][3699.348,437.580,1118.906,564.247,2498.835,1999.833,-813.067,1783.893][3702.857,448.555,1126.595,531.457,2487.637,2001.576,-817.582,1741.782][3716.491,463.329,1138.397,513.352,2488.330,2010.495,-813.603,1723.945][3709.182,453.718,1131.199,546.120,2497.718,2005.555,-820.085,1745.604][3700.868,445.761,1126.662,577.256,2506.502,2001.621,-824.198,1768.559][3713.429,459.552,1136.676,554.301,2501.965,2017.692,-803.165,1756.802][3726.550,473.902,1146.600,523.120,2494.455,2022.296,-790.179,1735.479][3714.547,459.641,1135.424,544.913,2494.633,2008.058,-813.872,1742.296][3702.611,446.297,1125.768,577.524,2505.519,2001.442,-813.872,1773.253][3711.909,457.004,1135.536,565.343,2501.004,2006.002,-804.015,1766.995][3721.968,472.069,1144.052,525.355,2488.330,2009.712,-827.551,1718.804][3718.615,465.453,1138.687,539.258,2497.494,2019.569,-814.430,1730.047][3714.659,453.651,1132.451,585.280,2514.951,2013.065,-793.018,1783.893][3725.790,462.323,1138.732,581.123,2510.570,2018.944,-779.115,1795.381][3727.399,474.818,1147.069,537.001,2494.544,2014.272,-806.630,1731.724][3717.207,466.704,1139.805,533.603,2493.471,2005.510,-830.010,1712.971][3699.839,449.538,1127.713,572.182,2505.206,2002.359,-826.009,1743.615][3711.283,454.858,1132.071,580.207,2509.609,2005.287,-810.117,1774.036][3730.350,476.182,1147.628,540.532,2494.209,2006.538,-813.983,1736.797][3726.036,474.326,1142.487,521.377,2486.922,2011.210,-812.687,1717.463][3716.112,456.579,1129.970,560.157,2504.424,2011.411,-806.362,1759.395][3713.407,454.433,1130.641,581.279,2510.056,2003.141,-815.146,1766.324][3724.225,477.187,1150.265,554.770,2503.283,2009.332,-818.588,1726.248][3730.506,482.373,1150.914,528.015,2497.025,2014.093,-811.994,1710.579][3721.588,467.621,1136.832,556.268,2506.189,2015.434,-802.562,1748.510][3720.247,463.061,1134.798,590.108,2517.946,2017.111,-795.342,1781.769][3734.574,478.506,1145.013,559.330,2508.625,2030.790,-779.227,1757.719][3742.800,488.229,1151.875,530.116,2501.182,2038.770,-760.496,1738.474][3723.979,468.895,1137.905,556.871,2507.374,2009.109,-801.578,1741.447][3707.595,454.165,1127.400,589.550,2505.608,1987.159,-836.760,1750.410][3722.102,472.069,1140.855,569.701,2501.071,1999.520,-826.478,1739.748][3738.329,489.213,1152.366,537.291,2496.042,2010.003,-817.873,1711.987][3735.289,483.267,1147.114,555.620,2503.194,2012.886,-805.132,1735.278][3719.464,463.665,1132.295,590.108,2514.214,2009.712,-806.764,1769.655][3723.957,469.632,1136.206,574.909,2499.282,2008.148,-810.117,1755.305][3733.010,482.440,1146.555,539.146,2491.616,2011.299,-806.049,1715.630][3726.505,480.473,1143.694,549.495,2497.159,2006.158,-815.034,1714.692][3718.570,467.129,1131.602,586.174,2507.776,2006.829,-807.434,1759.440][3720.179,470.124,1136.385,586.689,2508.938,2010.942,-807.256,1758.278][3737.167,492.454,1156.345,562.660,2505.385,2019.905,-808.507,1725.041][3739.514,489.704,1150.958,555.195,2499.998,2018.072,-799.052,1727.656][3722.750,466.660,1130.506,584.520,2503.664,2009.288,-791.743,1761.608][3719.375,471.085,1136.542,599.608,2505.966,2010.718,-797.488,1764.067][3735.580,493.236,1153.216,560.850,2498.277,2013.400,-802.919,1729.153][3737.122,488.900,1149.416,546.590,2494.768,2012.395,-809.178,1713.328][3725.320,473.008,1134.932,582.576,2503.105,2008.081,-810.698,1746.856][3722.795,468.716,1129.255,']
INDEX_b'0.804002046585083'___FLEX_[]___EMG_[b'596.635,2505.385,2009.489,-803.858,1767.509][3737.994,491.247,1149.237,568.695,2499.841,2012.015,-806.138,1736.216][3743.269,501.215,1159.184,553.384,2493.672,2010.808,-814.743,1711.652][3732.428,483.871,1142.174,576.206,2495.751,2008.058,-802.696,1743.458][3723.577,472.248,1132.876,600.457,2502.345,2006.114,-794.247,1771.242][3728.427,486.039,1145.013,576.518,2496.958,2009.869,-812.821,1728.930][3748.969,500.590,1153.305,544.891,2489.895,2023.660,-792.503,1725.286][3740.408,488.140,1143.493,571.333,2498.254,2019.458,-789.084,1749.426][3716.134,471.689,1131.870,598.401,2496.198,1993.798,-834.949,1742.385][3731.825,488.184,1146.712,585.906,2495.036,2003.744,-817.359,1739.167][3743.269,502.244,1157.172,553.943,2489.627,2017.111,-783.138,1715.630][3728.137,488.274,1143.806,566.304,2488.822,2004.080,-804.372,1718.313][3717.609,474.438,1133.077,604.034,2503.373,2004.102,-810.653,1754.344][3729.701,485.614,1141.884,597.462,2503.418,2012.372,-795.588,1759.887][3743.425,502.110,1153.752,555.195,2486.944,2012.015,-803.076,1721.397][3735.669,493.571,1145.057,551.194,2483.100,2002.314,-823.952,1710.624][3720.939,473.052,1126.058,583.090,2489.627,1993.753,-820.577,1746.811][3722.906,474.773,1129.456,589.617,2488.889,1993.954,-809.535,1753.405][3736.832,497.125,1149.796,557.654,2481.379,1999.878,-821.471,1708.992][3745.504,504.904,1155.809,557.073,2487.146,2011.500,-805.892,1714.446][3729.009,484.005,1136.765,588.208,2493.136,2006.427,-805.445,1747.973][3729.009,484.787,1139.179,603.050,2500.512,2010.808,-794.962,1765.877][3745.571,505.753,1155.920,568.852,2492.622,2016.306,-786.223,1738.027][3751.628,507.563,1153.261,542.343,2481.692,2012.171,-801.265,1722.671][3735.826,485.949,1134.373,569.053,2486.564,2002.917,-812.799,1743.972][3723.689,475.220,1127.802,589.974,2491.415,2002.582,-812.575,1757.205][3738.352,497.349,1147.762,564.426,2484.531,2012.618,-804.797,1727.857][3754.109,517.331,1163.766,547.841,2486.810,2011.657,-792.638,1712.658][3743.001,503.048,1153.261,577.837,2496.489,2003.588,-809.312,1736.440][3739.402,488.408,1142.487,607.878,2498.456,2005.689,-797.823,1779.422][3751.986,503.004,1150.333,574.865,2486.654,2008.952,-783.116,1764.357][3756.054,513.509,1156.993,536.665,2475.523,2005.577,-804.439,1713.462][3739.581,496.253,1142.398,553.943,2481.803,1998.961,-828.289,1715.541][3730.193,483.647,1134.150,588.924,2497.628,2005.242,-809.357,1755.797][3739.782,497.751,1146.712,579.514,2487.369,2000.906,-812.016,1739.346][3748.924,511.453,1155.630,535.391,2474.427,2006.225,-814.721,1700.275][3747.538,502.937,1146.019,544.310,2480.395,2014.406,-797.667,1727.231][3738.754,491.224,1137.436,584.856,2490.074,2004.571,-801.846,1758.255][3741.280,497.796,1145.147,583.783,2491.169,2011.411,-783.406,1751.170][3766.694,521.891,1163.654,547.729,2485.357,2016.776,-783.093,1731.970][3759.854,510.939,1150.958,536.978,2476.082,2005.354,-796.616,1723.409][3729.858,481.322,1126.953,565.320,2475.523,1984.209,-821.292,1732.819][3732.719,488.587,1134.262,575.446,2481.580,1986.757,-822.879,1733.020][3751.651,512.101,1152.858,538.856,2477.400,2005.465,-809.737,1705.192][3758.580,516.929,1156.658,534.385,2479.166,2005.421,-808.820,1706.109][3749.527,499.271,1141.481,570.349,2487.257,2003.096,-802.249,1745.761][3746.711,498.422,1143.023,588.276,2496.533,2005.667,-796.191,1758.702][3759.943,515.454,1156.569,550.211,2487.034,2012.529,-791.945,1725.912][3766.135,522.897,1159.720,524.886,2476.551,2007.723,-809.155,1705.483][3754.959,507.005,1145.952,556.357,2486.833,2004.326,-809.714,1735.211][3749.237,498.891,1140.207,578.575,2495.371,2009.332,-795.610,1760.155][3761.039,516.951,1154.468,549.562,2491.169,2012.976,-794.336,1733.065][3766.313,524.953,1159.206,517.085,2483.167,2015.188,-806.697,1699.492][3763.654,515.945,1152.098,548.489,2489.381,2013.870,-799.902,1735.769][3763.721,510.156,1147.628,578.441,2500.959,2020.776,-771.940,1782.484][3760.815,515.565,1149.774,541.158,2485.156,2017.066,-767.715,1743.503][3762.983,520.818,1149.953,496.343,2472.170,2013.914,-792.861,1697.458][3753.841,507.921,1142.196,524.908,2481.133,1997.039,-818.163,1709.886][3754']
INDEX_b'1.2049880027770996'___FLEX_[b'']___EMG_[b'.288,505.284,1145.057,574.350,2496.712,1990.602,-816.800,1749.158][3760.145,515.588,1149.751,549.451,2485.380,1995.407,-804.305,1736.172][3769.912,528.351,1159.184,508.077,2476.908,2003.521,-808.731,1696.900][3771.276,526.585,1158.111,521.980,2487.481,2013.266,-794.627,1715.474][3757.842,511.475,1145.885,553.519,2495.326,2008.438,-783.965,1754.567][3758.602,515.968,1148.298,545.360,2490.677,2011.232,-783.853,1744.129][3774.405,531.949,1164.705,512.682,2488.151,2014.876,-797.868,1704.857][3772.281,528.775,1158.334,503.339,2485.961,2012.305,-801.578,1702.823][3763.095,515.945,1146.466,533.536,2494.924,2007.634,-802.808,1737.155][3762.536,516.929,1150.847,543.952,2499.417,2010.450,-810.564,1733.735][3775.075,534.162,1163.587,504.032,2489.157,2025.537,-777.997,1703.225][3777.400,535.436,1163.297,487.581,2484.419,2022.833,-773.862,1695.916][3766.917,519.544,1149.908,514.269,2489.828,2007.991,-793.129,1723.230][3762.558,513.911,1144.499,517.376,2487.838,2005.041,-801.623,1729.936][3776.640,536.017,1164.034,493.728,2488.688,2012.238,-803.188,1696.743][3786.564,549.026,1172.997,474.170,2487.436,2027.258,-795.923,1681.700][3777.199,535.838,1161.598,494.778,2496.846,2028.555,-783.473,1710.557][3773.958,526.786,1156.591,514.403,2504.401,2021.939,-779.584,1740.664][3777.199,535.615,1163.229,486.732,2487.079,2011.948,-798.449,1698.464][3785.715,545.785,1170.047,464.313,2481.669,2018.675,-795.387,1672.939][3775.567,532.061,1157.038,472.583,2486.385,2013.870,-798.896,1684.405][3765.911,522.897,1151.584,493.102,2494.656,2014.987,-783.719,1706.913][3774.204,537.626,1165.822,484.094,2495.281,2019.458,-785.977,1687.087][3786.341,552.267,1172.863,455.350,2483.927,2021.112,-803.478,1655.638][3782.563,543.617,1164.839,460.200,2490.386,2019.324,-803.120,1668.647][3771.834,528.909,1153.104,478.081,2494.745,2012.037,-804.372,1690.820][3776.014,537.917,1161.464,469.834,2491.057,2013.646,-812.195,1671.732][3791.973,555.173,1173.645,448.622,2487.950,2030.589,-802.919,1656.286][3795.952,553.787,1170.851,454.232,2493.963,2037.116,-775.449,1674.973][3781.334,539.035,1160.972,478.059,2502.323,2028.108,-769.079,1695.335][3776.059,536.285,1159.340,471.912,2491.705,2019.324,-786.983,1683.824][3785.223,547.573,1164.101,439.793,2473.645,2015.077,-807.680,1649.782][3783.904,543.259,1158.044,435.881,2478.630,2020.441,-802.785,1648.464][3776.372,537.336,1158.223,476.092,2494.745,2015.635,-801.891,1675.040][3775.545,538.588,1159.005,480.674,2495.215,2016.686,-800.639,1680.002][3789.515,552.043,1168.370,457.339,2489.291,2026.230,-793.174,1661.651][3798.098,559.263,1172.863,452.869,2484.843,2026.163,-791.833,1658.008][3784.664,543.326,1160.368,479.020,2493.538,2027.817,-787.251,1681.432][3783.547,543.438,1162.492,494.264,2504.133,2031.014,-768.833,1701.862][3784.217,547.953,1164.079,470.392,2485.626,2020.866,-782.803,1664.154][3790.766,555.374,1167.677,457.630,2481.021,2018.765,-802.249,1640.394][3781.915,543.371,1156.479,471.443,2485.849,2015.077,-812.508,1655.437][3777.042,536.419,1151.763,487.134,2493.650,2020.151,-786.871,1685.903][3787.861,549.585,1162.179,478.573,2481.781,2018.653,-785.530,1671.642][3792.398,556.760,1165.778,461.139,2472.639,2013.222,-815.861,1636.550][3787.592,549.763,1160.190,477.523,2484.910,2014.183,-816.643,1653.604][3777.825,536.062,1149.640,493.035,2490.945,2017.312,-791.140,1685.411][3778.920,538.521,1151.182,482.239,2481.289,2012.462,-797.868,1668.692][3797.583,558.034,1165.889,467.464,2473.019,2015.859,-805.736,1649.693][3794.969,555.866,1164.012,483.133,2482.608,2015.390,-802.472,1661.383][3778.696,540.644,1153.864,505.216,2490.588,2015.144,-801.243,1676.113][3780.865,544.958,1157.105,502.266,2486.520,2015.144,-801.489,1669.407][3793.448,558.481,1165.375,483.379,2475.254,2017.357,-794.649,1654.141][3798.589,557.609,1164.057,489.011,2479.367,2018.228,-793.755,1665.406][3782.720,540.599,1151.361,506.334,2486.341,2011.188,-800.818,1681.030][3781.982,544.198,1154.713,507.586,2482.474,2015.434,-800.975,1676.001][3800.154,564.359,1169.242,492.498,2479.434,2031.505,-780.791,1663.685][3804.490,564.359,1167.052,488.520,2480.395,2030.455,-', b'768.073,1673.877][3786.251,544.779,1152.925,510.134,2479.904,2009.712,-798.807,1681.052][3784.597,545.047,1154.892,520.438,2486.587,2009.556,-811.368,1675.621][3801.674,562.571,1167.968,508.435,2476.305,2013.132,-800.595,1667.641][3811.777,569.075,1169.421,497.125,2471.790,2017.513,-792.727,1669.966][3789.984,550.658,1155.049,512.146,2478.786,2007.142,-818.744,1665.182][3782.809,543.103,1150.489,523.143,2485.760,2014.630,-792.615,1682.863][3791.347,550.367,1153.305,502.758,2471.835,2017.446,-789.575,1667.530][3802.769,562.951,1162.089,493.124,2467.945,2017.714,-798.225,1653.716][3794.499,552.781,1155.540,512.928,2480.485,2022.118,-780.121,1677.700][3782.273,543.863,1148.678,525.914,2479.121,2002.068,-805.311,1678.370][3790.722,553.966,1155.786,513.263,2468.951,1996.212,-821.628,1660.176][3805.138,570.886,1169.756,509.374,2469.801,2011.188,-814.475,1646.631][3795.125,558.771,1155.965,509.732,2474.807,2016.105,-790.492,1661.606][3787.011,544.332,1146.712,528.686,2482.206,2017.603,-780.255,1688.138][3802.099,557.765,1158.871,527.501,2475.992,2012.350,-794.359,1684.986][3806.547,568.450,1164.839,508.994,2466.381,2008.148,-812.687,1651.213][3805.273,566.237,1163.229,520.840,2474.986,2019.167,-784.904,1668.692][3794.052,554.681,1155.205,540.264,2482.720,2012.059,-792.749,1686.551][3790.386,554.390,1154.624,534.408,2475.947,2003.722,-813.224,1667.530][3804.893,569.098,1164.191,515.118,2466.940,2008.930,-813.022,1648.620][3807.776,566.997,1161.262,518.203,2471.410,2019.905,-795.588,1662.702][3801.584,557.363,1153.529,538.878,2484.642,2023.414,-784.323,1691.647][3800.445,558.816,1155.898,542.812,2480.775,2012.640,-790.961,1691.759][3803.619,567.935,1161.240,519.879,2464.615,2003.700,-802.450,1657.739][3807.351,572.652,1163.006,515.074,2466.604,2007.365,-807.904,1650.453][3801.786,561.275,1155.049,537.828,2483.055,2019.167,-789.844,1688.630][3796.779,552.401,1150.355,547.797,2485.581,2019.122,-775.091,1703.158][3809.318,570.484,1163.766,533.044,2471.902,2011.165,-782.736,1676.090][3816.046,577.368,1167.700,522.226,2469.890,2007.388,-797.041,1665.607][3810.503,570.886,1161.508,539.146,2475.143,2006.650,-809.737,1683.042][3799.752,566.706,1159.631,550.211,2486.766,2013.669,-804.350,1684.874][3810.726,575.915,1167.789,545.651,2481.647,2021.715,-770.599,1677.700][3822.282,581.168,1167.096,523.232,2469.063,2020.195,-768.632,1677.744][3810.525,566.371,1155.093,534.810,2476.529,2016.328,-778.779,1685.210][3792.175,552.155,1144.320,541.806,2478.697,2003.029,-805.713,1677.968][3802.277,568.785,1159.854,543.080,2475.277,1999.833,-817.247,1659.818][3820.829,584.409,1169.063,527.769,2467.543,2010.383,-799.723,1656.510][3812.291,573.993,1159.787,534.967,2475.433,2014.250,-793.174,1669.027][3801.272,566.036,1156.010,554.033,2485.804,2011.635,-793.867,1685.120][3812.850,576.474,1163.207,549.898,2481.424,2015.725,-789.262,1686.372][3826.976,590.958,1173.265,534.810,2479.837,2024.688,-779.271,1674.034][3821.075,582.665,1164.951,532.284,2475.769,2021.738,-778.198,1679.264][3811.509,569.031,1154.915,553.608,2486.430,2013.847,-782.758,1698.598][3808.782,567.019,1153.261,547.707,2482.072,2008.505,-790.425,1687.668][3823.042,583.448,1164.593,528.999,2469.376,2003.074,-804.640,1662.031][3828.585,589.393,1169.846,536.017,2475.456,2014.652,-795.476,1672.313][3807.776,569.321,1156.591,552.468,2483.927,2017.893,-779.495,1687.355][3811.866,575.222,1162.760,556.402,2492.756,2020.083,-772.834,1696.229][3839.046,599.138,1178.518,541.203,2487.146,2036.154,-751.220,1707.517][3843.159,598.736,1176.998,539.303,2484.173,2031.416,-754.975,1707.182][3807.977,569.724,1153.573,544.824,2476.707,1998.425,-809.267,1675.330][3801.160,565.298,1151.428,549.942,2480.060,1997.553,-812.195,1674.570][3819.198,582.710,1163.520,535.749,2474.584,2006.874,-797.488,1670.771][3828.429,591.606,1167.745,524.439,2473.735,2015.546,-794.135,1663.484][3822.551,583.448,1161.151,542.097,2487.190,2022.498,-780.635,1688.652][3814.526,577.144,1158.446,554.837,2494.186,2023.459,-775.069,1699.783][3829.681,592.209,1171.902,551.306,2489.738,2024.397,-773.415,1694.732][3845.126,605.173,1177.468,533.8']
INDEX_b'1.6059176921844482'___FLEX_[b'303,357,372,346,367\n303,357,372,348,367\n303,357,372,346,366\n303,357,373,346,367\n303,357,372,346,367\n303,357,372,346,367\n303,357,372,346,366\n303,356,372,347,366\n302,357,372,346,367\n304,357,372,346,367\n303,357,372,346,367\n303,357,372,346,367\n303,357,372,346,366\n303,357,372,346,366\n303,357,372,345,366\n304,357,372,346,366\n304,358,371,346,367\n303,357,373,346,367\n303,356,372,347,366\n304,357,372,346,366\n302,358,372,346,366\n303,357,372,346,367\n303,357,373,346,366\n303,357,372,346,367\n303,357,372,346,366\n303,355,372,346,367\n303,357,372,346,366\n303,357,372,346,367\n303,357,372,346,367\n303,357,373,346,367\n302,357,372,346,367\n302,357,372,345,367\n303,357,372,346,367\n303,357,371,346,366\n303,357,371,346,366\n303,357,372,345,366\n304,357,373,346,367\n304,357,372,346,367\n302,357,372,345,366\n303,357,372,346,367\n303,357,372,346,366\n303,357,372,346,366\n303,357,372,346,366\n303,356,370,346,367\n303,356,373,346,367\n303,357,372,346,367\n303,357,372,346,367\n303,357,372,347,366\n303,357,372,346,367\n303,357,372,346,367\n']___EMG_[b'04,2480.507,2023.883,-779.964,1687.691][3826.753,586.957,1162.782,540.622,2483.301,2016.977,-788.480,1679.376][3813.945,575.736,1156.345,558.279,2492.756,2016.485,-772.856,1694.150][3821.522,583.157,1159.787,541.426,2480.418,2013.311,-782.132,1682.885][3839.538,597.328,1167.655,525.825,2470.181,2019.972,-776.857,1676.493][3842.309,599.675,1171.880,544.913,2490.454,2022.118,-780.299,1687.311][3824.205,582.017,1158.781,556.491,2494.186,2017.066,-783.473,1698.800][3824.227,587.292,1163.118,548.422,2489.783,2017.915,-781.730,1688.071][3838.264,603.743,1176.082,535.078,2482.184,2023.302,-775.628,1665.317][3840.656,601.307,1172.573,540.577,2485.022,2024.979,-766.933,1678.124][3838.331,595.048,1171.120,567.555,2501.406,2027.638,-766.195,1712.099][3833.391,590.041,1166.247,558.458,2492.667,2019.167,-770.867,1708.076][3837.280,598.244,1170.047,533.715,2478.808,2014.563,-786.021,1667.172][3840.633,602.536,1171.813,530.675,2480.284,2021.402,-774.533,1669.183][3831.402,590.354,1163.051,551.552,2492.242,2021.760,-785.932,1694.463][3837.370,594.646,1168.147,559.978,2498.433,2028.018,-773.057,1712.635][3855.341,611.901,1180.373,545.293,2490.945,2030.164,-750.616,1708.187][3854.558,608.482,1174.830,529.468,2483.256,2023.257,-767.536,1692.787][3830.776,588.611,1159.921,540.443,2485.134,2009.444,-799.835,1678.929][3823.914,583.448,1157.463,551.775,2491.638,2016.932,-786.111,1691.602][3841.103,602.022,1170.516,535.950,2484.531,2021.313,-778.444,1685.143][3859.252,617.936,1183.257,533.626,2489.671,2030.142,-771.694,1685.232][3849.618,607.207,1173.489,547.886,2498.590,2034.277,-766.218,1703.449][3841.795,598.781,1168.817,558.302,2504.401,2034.880,-756.472,1724.392][3846.936,605.062,1172.148,539.303,2491.258,2027.661,-750.214,1704.231][3854.245,613.846,1176.193,521.332,2483.256,2021.380,-766.419,1677.901][3846.377,605.866,1170.069,528.194,2488.107,2020.083,-778.109,1689.077][3837.705,596.412,1164.816,546.143,2497.606,2016.887,-786.938,1704.522][3842.689,605.352,1171.589,538.856,2492.465,2022.386,-780.501,1691.647][3855.743,619.456,1182.675,527.188,2489.224,2031.952,-761.435,1682.997][3859.543,618.227,1180.507,534.408,2495.840,2037.294,-742.771,1709.193][3841.661,599.653,1165.375,545.226,2495.952,2020.396,-771.940,1712.233][3850.244,608.057,1171.924,543.661,2494.321,2019.100,-776.030,1707.047][3863.275,619.546,1180.351,522.271,2484.150,2023.816,-775.494,1688.764][3862.337,619.434,1179.703,527.166,2489.045,2023.794,-768.721,1691.379][3850.289,607.185,1170.002,541.180,2498.456,2026.454,-764.810,1709.305][3848.233,607.207,1171.298,545.226,2500.400,2025.180,-769.526,1708.210][3872.149,629.269,1188.241,537.828,2495.550,2035.663,-764.564,1704.186][3881.783,633.359,1188.487,531.435,2495.930,2047.330,-730.097,1720.481][3851.183,606.492,1168.817,542.276,2497.941,2029.918,-734.054,1716.055][3844.053,601.195,1164.794,543.349,2493.516,2013.669,-768.766,1706.734][3858.850,619.166,1177.870,528.261,2485.179,2015.054,-782.132,1685.634][3863.387,623.256,1177.870,515.096,2479.837,2021.201,-782.222,1675.062][3860.079,615.254,1173.824,543.058,2494.678,2029.136,-762.172,1708.098][3855.072,609.264,1171.053,551.775,2501.026,2026.320,-756.584,1724.504][3862.068,620.328,1179.434,537.582,2490.923,2023.816,-765.413,1697.794][3870.003,627.995,1183.838,526.831,2486.162,2028.577,-767.939,1682.952][3863.186,618.160,1175.568,537.425,2493.896,2029.807,-760.093,1703.315][3857.710,614.516,1175.433,554.770,2501.741,2026.476,-762.619,1716.994][3866.181,625.737,1183.234,540.443,2493.493,2029.561,-762.105,1704.678][3879.994,638.343,1191.013,525.758,2491.661,2042.927,-744.134,1700.431][3873.334,628.889,1184.396,540.398,2496.354,2036.445,-746.079,1711.361][3864.862,614.695,1173.534,552.401,2499.640,2022.319,-758.395,1729.444][3864.281,618.048,1174.338,542.142,2492.801,2022.453,-765.346,1707.807][3872.663,633.270,1185.559,531.144,2483.368,2023.079,-770.263,1680.806][3874.138,632.130,1183.324,535.570,2490.074,2029.427,-767.268,1695.000][3866.136,622.250,1177.177,555.486,2501.048,2028.890,-754.953,1721.956][3873.490,631.191,1184.866,555.687,2500.445,2033.785,-758.529,1720.615][3886.834,', b'645.027,1193.941,539.303,2493.963,2038.635,-753.276,1698.911][3883.191,637.293,1185.917,536.956,2494.008,2045.140,-731.416,1708.210][3866.159,617.042,1169.711,547.260,2496.578,2035.462,-731.170,1728.907][3866.561,618.450,1171.276,550.434,2494.231,2027.616,-737.406,1729.466][3877.223,636.868,1186.229,538.990,2487.637,2019.458,-768.565,1692.809][3879.413,640.802,1187.570,532.955,2484.262,2028.622,-765.301,1686.953][3872.395,626.922,1175.590,548.221,2496.444,2032.578,-753.164,1721.218][3870.987,629.626,1182.005,565.231,2506.435,2027.504,-760.339,1723.029][3882.006,642.233,1188.844,544.176,2491.661,2030.052,-759.199,1700.029][3887.840,645.854,1190.432,536.419,2488.777,2035.193,-754.193,1694.240][3876.888,633.940,1181.089,551.954,2495.818,2031.952,-742.905,1715.496][3867.947,625.648,1174.942,556.469,2500.423,2030.276,-747.532,1723.431][3875.524,637.896,1186.028,552.669,2495.662,2025.627,-762.530,1698.911][3893.204,648.469,1190.432,538.565,2485.469,2031.908,-754.774,1699.872][3882.565,637.986,1181.938,551.283,2493.516,2030.969,-760.898,1708.254][3873.356,631.012,1178.295,565.790,2504.043,2034.344,-741.497,1723.901][3889.472,648.692,1191.080,558.168,2501.317,2040.222,-729.360,1724.638][3902.413,660.561,1198.724,545.763,2494.969,2044.089,-733.428,1711.987][3885.091,643.127,1184.776,549.942,2493.806,2030.544,-757.769,1704.320][3874.697,631.727,1176.797,564.583,2500.110,2028.287,-750.281,1727.075][3886.499,641.562,1182.787,557.698,2494.633,2035.640,-739.418,1727.700][3895.708,652.134,1188.241,535.861,2484.083,2034.053,-750.527,1698.084][3896.401,654.101,1192.331,552.110,2496.444,2030.388,-755.064,1701.728][3882.476,641.294,1185.313,572.071,2504.982,2032.891,-744.447,1722.492][3886.052,644.691,1187.280,568.427,2503.865,2039.775,-729.650,1727.365][3905.788,660.673,1196.355,549.719,2495.103,2042.480,-735.238,1716.972][3914.506,661.410,1196.198,552.401,2499.104,2050.415,-706.270,1740.284][3881.850,635.706,1176.931,560.872,2494.768,2028.778,-745.118,1717.709][3874.183,635.035,1177.356,564.024,2492.957,2016.261,-773.214,1698.978][3888.332,651.151,1188.912,551.418,2486.609,2024.599,-762.373,1684.562][3901.698,660.360,1194.388,551.395,2493.114,2038.278,-750.192,1695.670][3898.636,652.872,1189.493,574.484,2507.374,2040.781,-744.648,1726.292][3887.169,644.222,1185.067,583.582,2509.050,2036.221,-735.685,1722.515][3900.536,656.828,1192.644,566.617,2494.075,2042.100,-724.174,1714.803][3912.650,665.568,1196.399,554.301,2491.929,2039.731,-739.217,1707.539][3899.128,651.799,1186.878,568.785,2498.947,2033.539,-744.470,1720.101][3893.853,645.541,1184.240,584.923,2507.597,2036.981,-734.523,1737.222][3899.910,657.588,1191.080,570.215,2495.438,2030.298,-744.470,1709.305][3908.091,665.769,1194.611,553.787,2490.744,2033.204,-749.990,1692.966][3899.329,654.906,1185.917,564.359,2498.791,2035.774,-748.225,1707.249][3894.926,649.363,1184.441,586.174,2509.184,2039.463,-735.909,1732.484][3907.599,662.483,1194.678,581.659,2506.547,2048.716,-727.594,1729.131][3925.011,684.477,1212.873,575.580,2505.429,2052.985,-726.700,1714.803][3918.730,673.257,1200.982,573.099,2506.771,2053.991,-709.087,1735.814][3899.217,650.391,1181.804,584.588,2507.866,2043.016,-714.295,1746.185][3894.479,650.145,1181.960,577.547,2499.417,2029.762,-738.993,1715.742][3911.309,670.306,1197.338,564.627,2494.298,2032.824,-744.022,1697.593][3910.371,669.837,1196.511,564.650,2496.198,2033.450,-753.298,1699.202][3905.855,660.628,1190.812,591.025,2507.821,2039.127,-732.534,1735.881][3909.476,663.802,1192.644,588.164,2505.809,2044.805,-731.394,1738.809][3906.280,671.245,1199.260,572.428,2499.573,2036.154,-743.531,1688.317][3913.500,674.732,1200.378,572.182,2499.797,2040.781,-724.912,1698.889][3912.405,666.864,1194.008,592.522,2513.588,2047.062,-723.839,1737.625][3909.320,663.020,1190.432,593.975,2511.397,2041.273,-732.847,1740.061][3912.583,670.262,1194.991,572.786,2496.980,2033.249,-741.541,1705.505][3916.338,675.000,1197.405,564.002,2494.410,2037.875,-735.864,1696.274][3911.689,668.116,1192.309,587.426,2507.240,2040.647,-732.064,1722.738][3904.425,662.975,1189.917,596.635,2511.308,2034.210,-739.1']
INDEX_b'2.0078694820404053'___FLEX_[b'304,357,372,346,367\n303,357,372,346,367\n303,356,372,345,366\n304,358,372,346,367\n303,356,372,346,366\n303,357,372,346,367\n302,357,372,346,366\n304,357,371,347,366\n303,357,372,346,367\n305,357,372,346,366\n303,357,372,346,367\n304,357,372,346,367\n303,357,373,346,366\n302,357,372,346,367\n303,358,372,346,367\n303,357,373,346,367\n303,357,372,346,366\n303,357,372,347,367\n302,356,372,346,366\n304,357,372,346,366\n303,358,372,345,367\n303,357,372,346,367\n303,357,372,346,366\n303,357,372,346,367\n303,357,372,346,367\n303,357,372,346,367\n303,357,372,346,367\n303,357,372,346,367\n303,358,372,346,367\n303,356,373,347,366\n303,357,372,346,366\n303,357,372,347,367\n303,357,372,346,366\n303,355,371,346,365\n303,356,372,346,366\n304,356,372,346,366\n303,357,372,346,367\n304,357,372,345,366\n304,357,372,346,366\n303,357,372,346,366\n303,357,372,346,367\n305,357,372,346,366\n303,358,372,346,367\n303,357,373,346,366\n303,357,372,346,366\n303,357,372,346,366\n303,357,372,346,367\n303,357,372,346,366\n302,357,372,346,366\n303,357,372,346,366\n', b'304,357,371,346,367\n302,357,372,346,367\n303,358,372,346,366\n300,357,373,346,367\n303,357,373,346,367\n304,356,372,346,367\n303,357,372,346,367\n303,357,373,345,367\n303,357,372,346,367\n304,357,372,346,367\n303,356,372,346,367\n303,357,372,346,366\n303,357,372,346,367\n303,357,372,345,365\n304,358,372,346,367\n303,357,372,346,367\n303,357,372,346,366\n303,357,372,346,367\n303,358,372,347,366\n302,357,372,347,367\n303,357,372,346,367\n303,356,372,346,367\n303,357,372,346,366\n304,357,372,346,367\n303,357,372,346,366\n302,357,372,346,367\n303,357,373,347,367\n304,357,373,346,366\n302,357,372,346,367\n301,357,372,346,367\n303,357,372,347,367\n304,357,372,346,366\n303,357,372,346,367\n304,357,372,346,366\n303,358,372,346,367\n303,357,372,347,367\n303,357,373,346,366\n304,357,372,346,366\n303,357,372,346,366\n303,358,372,345,367\n303,357,372,346,367\n303,357,372,346,367\n303,357,373,346,366\n302,357,373,347,367\n303,357,372,346,367\n303,357,372,346,366\n304,357,372,346,366\n302,357,371,346,367\n304,357,372,346,367\n303,356,372,346,366\n', b'303,357,372,347,367\n303,357,372,346,366\n303,357,372,346,367\n303,355,372,347,367\n304,357,372,347,366\n303,357,372,346,367\n304,357,372,346,366\n303,357,372,346,367\n302,357,372,346,366\n303,357,372,346,366\n303,357,372,346,367\n303,357,372,346,366\n303,357,372,346,367\n303,358,372,346,365\n303,357,371,347,367\n303,357,372,346,367\n303,357,372,346,366\n303,357,372,346,367\n304,356,372,345,367\n303,357,372,346,366\n303,357,372,346,366\n302,357,372,346,367\n300,357,372,345,367\n303,357,373,346,367\n303,357,372,346,367\n304,357,372,345,367\n303,357,372,346,366\n303,357,372,345,367\n303,357,372,346,366\n303,357,372,346,366\n303,357,372,346,367\n303,356,373,346,367\n304,358,372,346,366\n303,356,372,346,366\n303,356,372,346,366\n303,357,372,346,366\n303,358,372,346,366\n303,354,373,346,367\n303,357,372,346,367\n303,357,372,346,367\n303,357,372,346,365\n303,356,372,346,366\n304,358,372,346,366\n303,357,372,346,367\n303,357,372,346,367\n303,357,372,346,366\n303,355,372,346,367\n304,358,372,347,367\n303,357,372,346,367\n303,357,372,346,367\n', b'303,357,372,347,367\n303,357,373,347,367\n303,357,372,346,366\n303,357,372,346,367\n302,357,372,346,366\n303,357,373,346,367\n303,357,372,347,367\n305,357,372,346,367\n303,357,371,346,366\n302,357,372,347,367\n303,357,372,346,366\n304,357,372,346,368\n304,357,372,346,366\n302,357,372,346,367\n303,357,372,346,366\n304,357,373,346,367\n302,358,372,346,366\n303,357,372,344,367\n303,357,373,346,366\n304,359,372,347,367\n301,357,372,346,367\n304,357,372,346,367\n304,357,372,346,366\n304,357,372,346,367\n303,357,372,346,367\n304,357,371,346,367\n303,357,372,345,366\n304,357,373,346,367\n303,357,372,345,367\n303,357,372,346,366\n305,357,372,346,366\n303,358,372,346,367\n302,357,372,346,367\n304,357,372,346,367\n303,357,372,345,367\n303,358,372,346,367\n304,357,372,345,366\n303,358,372,346,366\n304,357,372,346,366\n303,357,372,345,367\n303,357,371,346,367\n303,358,373,345,367\n303,357,372,346,367\n304,357,372,346,367\n303,357,372,346,367\n303,357,373,346,367\n303,357,372,346,366\n303,357,372,346,367\n303,357,372,346,367\n302,357,370,347,367\n', b'303,357,372,346,367\n304,357,372,346,367\n303,357,372,346,367\n303,357,372,346,367\n304,357,372,346,366\n304,357,372,346,366\n304,357,372,346,367\n304,357,372,346,367\n303,357,372,346,366\n301,357,372,346,367\n304,358,372,345,366\n305,356,372,346,367\n303,357,372,346,367\n304,357,372,346,366\n304,357,371,346,367\n303,357,372,347,366\n303,358,372,345,366\n303,357,372,346,367\n303,356,372,346,367\n303,357,372,346,366\n303,357,372,346,367\n303,357,372,346,367\n304,357,372,346,367\n304,357,372,346,366\n302,357,372,346,368\n303,356,372,346,366\n304,358,372,346,367\n304,357,372,346,367\n303,358,372,347,367\n303,357,372,347,367\n304,358,371,347,366\n304,357,372,346,366\n303,357,372,346,366\n302,357,372,346,367\n303,357,373,348,367\n303,358,372,347,366\n303,358,371,347,367\n303,357,372,347,367\n303,357,372,347,367\n302,357,372,348,367\n304,357,372,347,366\n304,357,373,348,366\n303,357,373,347,366\n303,357,373,348,367\n303,357,372,347,366\n303,358,372,348,366\n303,357,372,348,367\n302,357,372,348,366\n303,357,372,347,366\n304,357,373,348,367\n']___EMG_[b'72,1729.354][3915.333,674.509,1198.031,577.748,2501.361,2035.663,-739.753,1710.847][3928.006,684.366,1203.664,567.779,2500.221,2044.961,-727.192,1709.931][3921.904,675.760,1198.165,590.198,2514.102,2051.264,-711.523,1735.479][3906.682,661.992,1187.414,594.400,2514.236,2044.603,-725.806,1737.177][3910.125,668.988,1191.281,573.523,2499.707,2042.681,-733.137,1713.328][3928.185,688.970,1207.195,570.819,2499.685,2043.039,-727.147,1704.387][3929.615,684.880,1202.032,579.938,2510.816,2046.503,-725.314,1726.851][3922.373,675.939,1197.897,600.793,2520.092,2049.543,-719.927,1751.013][3927.648,682.756,1203.597,596.412,2513.297,2053.656,-705.689,1745.314][3938.780,693.195,1208.313,572.227,2501.026,2052.918,-714.809,1724.974][3930.621,686.824,1203.776,576.720,2506.390,2045.453,-722.498,1721.956][3919.982,674.307,1193.896,591.539,2512.850,2042.905,-720.173,1743.883][3917.747,677.124,1197.472,592.053,2511.241,2041.117,-727.482,1729.265][3922.418,684.209,1200.199,564.516,2496.310,2038.680,-735.037,1698.487][3923.379,682.242,1197.852,566.863,2499.551,2034.925,-741.050,1701.839][3920.250,678.018,1196.198,592.545,2512.671,2038.859,-733.294,1730.830][3921.680,680.096,1197.562,590.846,2513.364,2046.771,-725.068,1734.451][3939.338,697.665,1210.101,574.887,2505.921,2047.330,-723.951,1718.827][3937.215,696.234,1208.536,575.244,2503.753,2042.011,-732.780,1707.629][3925.547,682.510,1198.210,592.679,2514.437,2050.080,-719.324,1732.573][3923.491,682.555,1201.049,600.569,2520.383,2054.662,-710.160,1740.329][3936.634,695.854,1209.810,581.369,2508.313,2055.109,-713.177,1724.392][3943.518,701.688,1211.554,571.109,2503.574,2047.286,-723.370,1713.462][3935.270,689.663,1201.697,586.711,2511.621,2047.956,-709.601,1739.122][3928.632,683.874,1197.271,593.528,2514.102,2042.838,-720.397,1743.950][3936.656,695.564,1205.921,579.201,2506.189,2041.899,-735.931,1716.256][3945.351,703.812,1211.532,568.718,2505.474,2054.282,-731.304,1707.584][3936.947,693.776,1204.379,584.990,2515.644,2060.026,-714.496,1729.779][3930.912,685.774,1199.573,601.329,2520.405,2058.439,-686.355,1753.226][3939.808,696.145,1204.357,584.185,2508.044,2052.069,-707.768,1735.814][3951.833,707.053,1210.168,564.359,2500.333,2050.795,-720.151,1722.939][3945.351,702.314,1207.978,580.765,2512.470,2051.600,-723.079,1728.885][3925.972,683.382,1194.455,593.685,2515.644,2044.358,-720.196,1737.155][3934.041,692.703,1202.524,589.661,2511.442,2041.139,-722.699,1727.075][3957.577,713.870,1216.851,574.417,2505.139,2050.840,-719.212,1719.743][3944.457,702.113,1206.525,577.480,2502.904,2040.669,-734.568,1710.802][3941.194,695.787,1203.820,600.100,2520.137,2048.090,-719.480,1744.934][3945.060,701.912,1209.542,597.641,2516.940,2048.761,-715.792,1740.150][3952.101,713.535,1215.376,574.730,2505.943,2049.767,-719.994,1712.993][3948.212,705.153,1207.195,569.813,2503.373,2051.175,-711.098,1718.201][3938.109,691.474,1195.997,585.303,2512.671,2051.175,-708.260,1742.184][3939.227,695.117,1201.049,591.829,2515.085,2048.940,-707.366,1741.737][3952.928,709.109,1208.648,566.438,2501.294,2053.812,-709.556,1721.330][3956.527,712.887,1212.381,571.288,2506.837,2054.215,-719.234,1714.401][3947.966,703.722,1205.608,588.141,2515.085,2052.427,-722.051,1738.362][3945.932,699.990,1203.038,593.282,2521.545,2059.557,-711.143,1750.857][3959.857,716.060,1214.706,578.441,2508.134,2052.091,-696.659,1732.506][3965.445,723.817,1221.188,576.429,2508.000,2052.538,-699.744,1722.850][3955.812,710.852,1209.788,586.912,2513.655,2049.968,-711.769,1742.385][3946.021,698.917,1199.596,590.377,2514.996,2048.180,-719.704,1750.164][3954.381,712.596,1211.330,579.603,2510.347,2054.103,-713.624,1729.690][3965.535,722.990,1217.365,568.070,2504.602,2053.656,-701.130,1722.291][3955.454,710.160,1205.631,576.340,2508.268,2048.269,-712.037,1732.573][3947.139,703.543,1203.261,596.881,2519.578,2052.047,-713.289,1744.531][3957.756,715.099,1212.135,584.029,2512.694,2054.438,-705.622,1737.513][3972.933,727.661,1219.869,568.874,2506.033,2052.740,-704.706,1729.891][3969.625,719.257,1211.554,576.407,2512.090,2058.037,-701.107,1744.554][3948.592,705.846,1205.944,601.754,25', b'24.920,2052.538,-704.639,1746.073][3964.171,721.805,1218.461,600.189,2520.405,2057.880,-687.338,1756.065][3970.608,729.717,1219.802,570.104,2502.188,2051.085,-721.939,1717.799][3958.628,715.993,1207.240,565.521,2503.306,2050.437,-725.448,1712.233][3949.620,705.130,1201.272,589.393,2515.041,2048.426,-713.266,1740.597][3953.107,707.947,1203.217,585.817,2509.855,2050.459,-691.809,1745.358][3968.016,723.839,1213.007,564.359,2504.915,2054.416,-699.297,1727.656][3975.571,731.304,1219.131,573.412,2507.329,2055.422,-706.516,1732.104][3958.315,711.814,1202.837,584.990,2514.638,2049.208,-713.714,1746.073][3955.163,708.975,1201.697,586.823,2512.537,2042.905,-716.530,1745.626][3970.295,728.354,1215.980,574.082,2506.100,2049.074,-706.583,1728.997][3980.734,735.216,1220.204,572.026,2508.737,2058.283,-701.197,1734.205][3973.492,725.448,1213.499,591.382,2518.907,2055.936,-703.722,1757.562][3962.428,721.693,1213.275,603.005,2527.647,2060.250,-700.079,1753.964][3974.677,734.009,1221.389,584.789,2515.644,2061.121,-692.546,1740.776][3984.288,738.256,1221.098,569.567,2508.290,2064.027,-690.423,1738.005][3972.821,724.733,1209.453,580.095,2513.364,2055.980,-696.503,1749.426][3967.323,718.318,1206.189,588.387,2517.991,2051.801,-703.543,1761.228][3975.369,731.595,1218.192,585.906,2512.850,2052.091,-713.557,1735.188][3985.092,744.067,1225.591,571.109,2506.681,2058.685,-697.754,1725.957][3977.023,728.086,1212.046,577.547,2514.526,2063.290,-676.744,1754.075][3973.224,722.744,1209.855,598.110,2522.461,2056.048,-689.440,1772.180][3967.904,724.845,1210.772,583.112,2508.804,2049.141,-718.765,1726.963][3977.560,738.300,1220.137,568.047,2503.574,2056.159,-701.755,1709.752][3974.341,730.500,1213.432,575.155,2515.622,2062.574,-688.277,1730.763][3967.837,722.744,1211.196,605.486,2526.485,2057.836,-688.903,1754.724][3972.218,729.606,1214.661,595.920,2514.459,2047.710,-708.796,1742.073][3982.365,741.832,1220.919,571.288,2503.127,2050.325,-710.942,1718.447][3987.193,742.257,1220.383,578.843,2511.710,2059.959,-703.454,1733.959][3981.136,730.522,1212.381,599.116,2522.528,2056.986,-696.167,1764.536][3973.961,725.895,1208.425,593.148,2512.850,2052.203,-693.709,1753.003][3980.466,736.266,1213.342,566.751,2501.786,2058.618,-698.157,1724.638][3984.154,739.709,1216.784,573.903,2509.743,2059.624,-694.670,1730.383][3977.917,730.924,1211.442,596.903,2521.344,2059.847,-693.284,1755.439][3973.648,730.299,1211.286,595.026,2518.013,2050.281,-707.008,1747.862][3988.534,745.632,1222.059,578.418,2510.190,2059.646,-694.469,1737.468][3987.395,743.263,1218.885,573.725,2502.725,2051.063,-707.410,1724.303][3979.594,733.830,1212.604,594.914,2517.924,2051.957,-699.833,1746.878][3974.990,731.394,1211.643,602.961,2522.975,2059.445,-688.277,1758.546][3993.608,749.745,1223.736,584.967,2515.085,2067.067,-676.297,1752.220][3996.000,753.187,1225.568,572.272,2508.112,2056.718,-701.979,1727.924][3985.897,741.273,1216.874,591.785,2515.644,2056.115,-707.142,1740.575][3982.388,735.395,1213.387,606.269,2523.691,2056.383,-684.388,1764.290][3989.026,742.123,1216.471,588.052,2512.761,2056.495,-679.627,1748.175][3998.615,753.164,1222.819,571.780,2508.491,2059.691,-695.005,1728.594][3999.263,753.120,1225.323,596.657,2521.567,2065.435,-697.196,1748.443][3983.908,741.229,1217.589,605.933,2525.255,2064.027,-692.837,1759.037][3983.818,743.330,1217.745,595.562,2513.923,2050.840,-695.407,1743.660][3998.302,759.468,1229.569,583.492,2509.363,2056.763,-700.593,1722.179][3998.571,754.707,1225.188,590.175,2517.544,2066.218,-687.115,1741.469][3988.691,739.127,1211.889,601.329,2520.584,2060.451,-682.689,1766.280][3980.041,734.724,1207.352,591.472,2511.822,2054.125,-698.693,1736.261][3992.513,753.321,1222.775,581.548,2508.268,2054.930,-706.449,1707.763][3999.040,759.021,1226.753,586.085,2511.732,2058.126,-701.018,1720.101][3993.564,749.968,1222.059,613.399,2529.770,2069.637,-677.392,1758.032][3995.844,752.427,1223.713,613.399,2531.849,2065.659,-678.711,1764.178][4004.024,759.937,1224.741,583.291,2507.061,2061.568,-692.323,1734.786][4004.963,758.149,1219.802,574.015,2503.976,2071.068,-676.341,1732.774][3991.440,745.6']
INDEX_b'2.408768892288208'___FLEX_[b'303,357,372,347,367\n303,357,372,348,366\n304,358,372,347,366\n304,357,373,347,366\n304,357,372,348,366\n303,357,372,347,366\n303,357,372,348,367\n304,357,372,348,367\n303,358,371,347,366\n304,357,373,348,367\n303,358,373,347,366\n304,357,372,348,366\n303,357,372,347,367\n302,358,373,348,367\n303,358,372,348,367\n303,357,372,348,366\n303,357,372,347,366\n304,357,372,347,367\n304,357,372,348,366\n303,356,372,348,366\n304,357,372,347,367\n303,357,372,347,366\n304,357,372,348,366\n304,357,372,348,367\n304,357,372,347,366\n304,357,372,347,366\n303,357,372,347,367\n304,358,372,347,367\n304,357,373,348,366\n304,356,372,348,367\n304,357,372,348,366\n304,357,372,348,367\n304,358,372,347,366\n303,357,372,348,367\n304,357,373,347,366\n304,357,372,348,367\n303,357,372,347,366\n303,357,373,348,368\n303,357,372,348,366\n303,358,372,348,367\n303,357,372,347,366\n303,357,372,348,367\n303,357,373,349,366\n304,357,372,348,366\n304,357,371,347,367\n304,357,372,347,366\n304,357,372,347,366\n303,357,372,347,367\n304,358,372,347,367\n304,357,372,347,367\n', b'304,357,372,347,367\n304,357,372,347,367\n304,355,372,347,367\n303,358,373,348,366\n303,358,371,347,367\n304,357,372,348,366\n304,357,372,347,366\n304,358,373,347,366\n304,357,372,347,367\n303,357,372,347,367\n304,357,372,348,367\n304,357,372,348,366\n303,358,372,348,367\n305,357,372,348,367\n304,357,372,347,367\n304,357,373,347,367\n305,358,372,348,367\n305,358,371,348,367\n304,357,372,347,367\n304,357,372,347,366\n305,357,372,347,366\n304,358,373,348,367\n305,358,372,347,367\n305,357,372,347,366\n305,358,372,347,367\n304,357,372,348,367\n305,357,372,348,366\n305,357,372,348,367\n305,357,372,348,367\n305,357,372,347,367\n305,358,372,348,366\n305,357,372,347,367\n305,358,372,348,367\n306,357,372,348,367\n305,357,372,347,367\n305,358,372,347,367\n305,357,373,348,367\n307,357,372,348,367\n306,357,372,348,367\n306,357,372,348,367\n306,357,372,347,367\n304,358,372,347,367\n305,357,372,348,366\n306,358,372,347,367\n306,357,372,348,366\n306,359,372,348,365\n306,358,373,347,367\n305,357,373,347,366\n307,358,372,348,367\n307,358,372,348,367\n', b'306,358,371,347,367\n306,358,372,348,367\n306,357,372,348,367\n306,357,372,348,366\n305,358,372,348,367\n307,358,372,348,367\n306,357,373,347,367\n306,358,372,347,367\n307,358,372,348,367\n306,357,373,348,367\n306,357,372,347,366\n306,358,371,347,366\n307,357,372,347,367\n307,357,372,348,367\n307,358,372,348,367\n306,358,371,348,367\n307,358,372,347,366\n307,357,372,347,366\n305,357,371,347,367\n307,357,372,347,367\n307,358,372,348,367\n308,357,372,347,367\n307,358,372,348,367\n307,357,372,347,366\n307,357,372,347,366\n308,357,373,347,366\n307,357,372,347,366\n308,358,372,347,365\n307,357,373,348,367\n307,357,373,348,366\n307,358,372,348,366\n307,357,372,347,366\n307,357,372,348,367\n307,357,372,348,367\n307,358,372,347,367\n307,358,373,348,367\n307,357,373,348,367\n307,358,372,348,367\n307,358,372,348,367\n307,357,372,347,367\n307,358,372,348,366\n307,358,372,348,366\n309,357,372,348,367\n307,358,371,347,367\n307,358,372,348,367\n307,357,372,347,367\n307,357,372,348,366\n308,358,372,347,367\n308,358,372,347,366\n307,358,372,348,367\n', b'307,358,373,347,367\n307,357,371,348,367\n308,358,372,348,367\n307,358,371,347,367\n307,358,372,348,367\n307,357,373,348,366\n307,357,372,347,367\n307,357,372,348,366\n308,358,372,347,367\n307,358,372,348,367\n306,358,372,347,367\n308,357,372,347,366\n308,358,371,348,366\n308,357,372,348,366\n307,358,372,347,366\n308,356,372,347,367\n307,359,371,348,367\n308,358,371,348,366\n307,358,372,348,366\n307,357,372,348,366\n307,357,372,348,367\n307,358,373,348,367\n308,358,373,348,367\n308,357,372,348,367\n307,358,372,347,367\n308,358,372,347,367\n308,357,372,348,367\n307,358,372,348,366\n307,358,372,348,367\n307,358,372,348,367\n307,358,373,347,367\n307,357,372,348,367\n307,358,372,347,367\n308,358,372,348,367\n308,358,372,348,367\n308,358,372,348,367\n308,357,373,348,367\n307,357,372,348,366\n308,357,372,347,367\n307,358,372,347,367\n308,358,372,348,367\n308,357,373,348,368\n307,358,372,347,366\n307,357,372,348,366\n307,358,372,347,367\n307,358,372,348,366\n308,358,373,347,366\n307,358,372,347,367\n307,358,372,347,366\n308,358,372,347,367\n', b'307,358,372,349,367\n308,358,372,347,366\n307,358,371,347,367\n307,359,372,348,367\n308,358,372,347,368\n308,357,372,347,366\n308,357,370,347,367\n309,358,372,348,367\n307,358,373,347,366\n308,358,372,348,367\n308,357,372,347,366\n308,358,372,348,365\n307,358,372,347,367\n307,358,372,348,366\n307,358,372,347,367\n307,358,372,348,367\n307,358,372,347,367\n308,357,372,347,367\n307,358,372,347,366\n308,358,372,348,367\n307,358,371,347,367\n308,358,372,347,367\n308,357,373,347,367\n307,357,372,347,367\n308,358,372,347,367\n307,357,371,348,367\n307,358,372,347,367\n307,357,372,348,367\n307,357,372,347,367\n308,358,372,348,367\n307,358,372,347,367\n308,358,372,348,366\n308,357,372,347,366\n307,358,373,348,367\n307,357,372,348,366\n307,358,372,347,367\n307,357,372,347,366\n307,357,373,348,367\n307,358,371,348,367\n307,358,373,347,367\n307,358,373,348,366\n307,358,372,348,367\n307,357,372,347,366\n307,357,372,348,367\n307,358,373,347,367\n307,357,372,348,367\n307,358,372,347,367\n308,358,372,347,367\n307,357,372,348,367\n308,358,372,348,367\n']___EMG_[b'99,1214.817,605.062,2524.808,2064.921,-671.893,1754.969][3981.874,741.094,1213.432,611.343,2518.147,2050.415,-699.967,1743.257][3994.927,756.383,1222.775,591.360,2508.290,2050.325,-706.472,1719.095][4005.522,763.737,1226.083,582.866,2509.743,2058.350,-685.953,1723.833][3998.280,754.841,1220.115,603.251,2523.042,2061.278,-687.808,1748.510][3995.307,752.539,1219.601,613.913,2526.373,2057.880,-696.525,1759.708][3997.565,759.356,1225.390,603.586,2519.064,2062.686,-695.005,1733.512][4000.202,761.993,1223.087,579.357,2507.687,2061.881,-687.674,1717.307][4005.142,763.670,1225.948,607.096,2520.696,2058.663,-686.333,1748.443][4003.555,758.305,1222.395,621.513,2527.111,2060.115,-679.404,1774.103][3992.558,751.779,1213.543,593.595,2508.044,2054.572,-691.049,1735.479][3999.531,757.992,1215.778,571.400,2497.763,2055.891,-698.023,1712.993][4000.247,758.015,1216.404,589.684,2507.262,2051.421,-700.325,1725.689][3985.495,745.006,1208.447,605.509,2519.176,2052.337,-693.016,1744.196][4001.990,760.943,1223.624,611.655,2521.567,2058.171,-685.349,1747.929][4015.133,776.589,1231.425,591.114,2514.973,2065.636,-686.936,1726.851][4012.786,773.281,1229.145,599.049,2518.013,2062.418,-684.053,1734.607][3993.497,752.382,1212.537,605.688,2518.729,2050.840,-691.898,1745.246][3993.832,756.025,1217.567,607.833,2515.532,2052.941,-691.205,1735.456][4019.648,782.020,1236.409,594.400,2514.214,2075.493,-667.781,1732.886][4017.659,777.014,1230.486,596.166,2520.919,2080.925,-659.823,1740.575][4003.264,763.066,1221.009,614.718,2529.726,2069.458,-681.214,1750.119][4007.958,769.258,1226.463,617.065,2526.351,2065.100,-681.929,1755.841][4018.911,781.126,1235.247,601.463,2516.583,2063.334,-675.514,1737.602][4011.892,773.728,1225.792,585.817,2505.496,2051.577,-685.863,1715.362][3999.196,756.562,1210.593,598.311,2514.750,2057.098,-682.108,1738.318][4002.504,762.284,1219.377,620.708,2527.021,2061.367,-682.980,1750.521][4016.363,779.048,1230.598,601.642,2511.934,2056.718,-688.635,1728.729][4025.706,784.345,1232.721,594.981,2513.856,2066.709,-678.666,1730.561][4008.852,769.816,1223.199,610.516,2519.466,2064.608,-687.361,1734.674][4000.962,763.401,1217.544,616.439,2526.664,2061.881,-688.858,1741.737][4025.169,784.032,1233.302,616.439,2525.211,2067.156,-677.861,1746.297][4030.802,790.358,1236.700,601.530,2513.029,2063.871,-685.997,1725.756][4014.753,777.461,1227.714,611.454,2520.003,2061.993,-683.785,1730.561][3999.420,762.753,1217.477,623.345,2524.965,2059.780,-678.711,1741.827][4009.299,772.834,1223.266,607.252,2512.090,2056.495,-691.362,1726.315][4030.064,791.811,1237.907,605.151,2512.537,2066.285,-666.663,1730.517][4026.734,785.530,1231.648,612.013,2517.633,2066.083,-664.607,1744.732][4008.852,769.951,1221.657,625.536,2524.629,2058.193,-689.775,1745.805][4011.445,773.750,1224.630,618.719,2521.009,2063.669,-686.690,1736.172][4028.119,790.827,1235.224,604.793,2512.403,2068.073,-670.128,1731.902][4027.248,783.876,1227.111,605.486,2514.258,2067.961,-671.893,1745.001][4013.747,771.135,1217.902,620.909,2520.584,2058.171,-681.929,1753.405][4016.608,778.221,1224.406,621.356,2520.070,2062.596,-664.249,1749.560][4027.382,792.615,1235.806,606.246,2514.482,2072.699,-662.774,1732.349][4031.562,793.487,1234.487,610.337,2517.544,2065.748,-670.530,1735.166][4015.424,772.990,1215.801,615.768,2519.891,2049.744,-694.245,1744.084][4006.103,767.134,1211.084,613.824,2516.136,2051.018,-698.738,1734.182][4023.940,787.251,1229.659,612.684,2517.432,2061.345,-679.247,1728.192][4032.769,790.045,1228.072,598.155,2511.755,2063.535,-674.106,1734.697][4022.330,780.031,1220.875,615.679,2518.460,2056.115,-681.773,1748.264][4018.285,778.243,1220.852,627.056,2522.350,2061.144,-677.370,1753.114][4041.620,799.611,1237.258,619.434,2520.584,2070.196,-663.377,1752.354][4044.168,804.573,1240.298,612.728,2514.169,2066.531,-668.518,1735.568][4019.827,781.775,1220.852,614.964,2514.526,2059.244,-682.712,1728.192][4011.691,773.259,1216.650,627.324,2520.785,2057.478,-678.197,1743.615][4024.856,788.234,1228.184,620.015,2511.755,2056.025,-677.861,1731.500][4038.759,800.371,1235.403,608.124,2506.368,2058.908,-676.833,17']
INDEX_b'2.8096981048583984'___FLEX_[b'305,358,372,347,367\n306,357,372,348,367\n308,358,372,347,366\n305,358,372,348,368\n308,357,373,347,367\n307,358,372,347,367\n307,358,372,347,367\n307,358,372,348,367\n307,357,373,348,367\n307,358,372,347,367\n307,357,372,347,367\n307,358,372,347,367\n305,358,372,347,367\n307,358,372,348,367\n307,358,372,347,367\n308,358,372,347,366\n308,358,372,348,366\n307,358,372,348,367\n307,358,372,347,367\n307,357,372,348,367\n308,358,372,348,366\n307,358,373,347,367\n306,358,372,347,366\n309,357,372,348,367\n308,358,372,347,368\n307,358,371,348,367\n307,357,372,347,367\n307,357,372,347,367\n307,358,372,347,367\n307,358,373,348,368\n307,358,373,347,366\n308,358,372,348,367\n307,357,372,346,366\n307,358,372,348,365\n308,358,372,348,367\n307,358,372,348,367\n308,358,372,347,367\n308,358,372,348,367\n307,358,372,347,367\n308,357,373,348,367\n308,358,372,347,367\n308,358,372,347,366\n308,358,372,347,367\n306,359,373,348,367\n306,358,372,347,367\n308,358,372,348,367\n307,358,372,347,367\n309,358,371,349,368\n307,359,372,348,367\n308,357,372,348,366\n', b'307,358,372,347,367\n308,358,372,348,367\n307,358,372,347,367\n307,358,371,348,367\n308,358,372,348,369\n308,358,372,348,367\n307,357,372,347,367\n308,357,372,347,366\n308,358,372,347,368\n308,358,372,347,367\n308,358,372,348,367\n308,358,372,348,367\n307,358,372,347,366\n308,358,373,348,366\n307,358,373,347,367\n307,358,372,347,367\n307,358,372,347,367\n308,358,372,347,367\n307,358,372,347,366\n306,358,371,348,367\n308,358,372,347,367\n308,358,371,347,367\n308,358,372,347,367\n307,358,374,347,367\n308,358,372,348,367\n308,357,372,347,366\n308,358,372,347,367\n308,358,372,348,367\n307,358,372,347,367\n307,357,372,347,367\n307,358,372,347,367\n308,358,373,347,367\n308,359,373,347,367\n308,358,372,347,367\n307,358,372,347,367\n307,358,372,347,367\n307,358,372,347,367\n308,358,370,347,366\n307,357,372,347,366\n308,358,372,347,367\n308,358,372,347,366\n307,357,372,347,366\n307,357,371,347,367\n308,358,371,347,367\n308,358,372,347,366\n307,358,372,347,367\n308,358,373,347,367\n307,358,372,347,367\n308,358,371,347,367\n308,357,371,347,367\n', b'308,357,372,347,367\n308,358,372,347,366\n308,358,372,347,367\n308,358,373,347,367\n308,357,373,347,366\n309,358,372,347,367\n307,356,372,347,366\n308,357,372,348,367\n307,358,372,347,366\n307,358,372,347,367\n308,358,372,347,367\n308,357,372,346,366\n307,357,372,347,367\n307,358,372,347,367\n307,358,372,347,367\n308,358,372,347,367\n308,358,372,347,368\n305,359,372,347,367\n307,357,373,347,367\n308,358,372,347,367\n308,358,372,347,367\n308,359,372,347,367\n307,358,372,346,367\n308,358,372,347,367\n307,358,373,347,367\n307,358,372,347,367\n308,358,373,347,367\n309,358,372,348,367\n307,358,372,347,367\n307,357,372,347,366\n307,358,373,347,366\n306,358,372,347,367\n307,358,372,347,367\n308,358,373,347,367\n308,358,373,347,367\n308,358,371,347,367\n309,358,372,347,367\n308,358,373,347,366\n308,358,371,347,368\n308,357,372,347,367\n307,358,372,346,367\n308,358,372,347,367\n307,358,372,347,367\n308,358,372,347,367\n308,358,372,346,367\n308,358,372,345,366\n308,358,372,346,367\n307,359,372,347,367\n308,358,372,347,367\n307,358,372,347,367\n', b'308,358,372,347,368\n307,358,372,347,367\n308,359,373,347,367\n308,358,372,347,367\n308,358,372,347,368\n307,357,372,347,366\n307,358,372,347,367\n308,358,372,347,366\n308,357,372,347,367\n306,358,372,347,367\n308,358,372,346,367\n307,357,372,346,367\n307,358,371,346,367\n308,358,372,347,367\n308,358,372,346,367\n307,358,372,346,367\n307,359,372,346,367\n307,358,372,347,367\n307,358,372,347,367\n308,358,372,347,366\n307,359,372,347,367\n308,358,373,347,367\n307,358,372,347,367\n309,358,372,348,367\n307,358,372,347,367\n307,358,372,348,367\n308,358,372,347,367\n307,357,372,347,367\n308,358,372,347,367\n307,358,372,347,367\n309,358,372,348,366\n308,358,372,347,367\n307,358,372,347,367\n307,357,372,347,367\n308,357,372,347,366\n308,358,372,348,367\n308,358,372,347,367\n307,358,372,347,367\n308,358,372,347,367\n309,357,372,347,367\n307,358,372,347,367\n308,358,371,347,364\n308,358,372,347,367\n308,358,372,346,367\n308,358,372,347,367\n308,359,372,347,367\n307,359,372,346,367\n307,358,372,347,367\n307,358,372,346,367\n308,358,372,347,367\n']___EMG_[b'23.453][4027.740,784.747,1221.076,614.427,2514.169,2064.385,-666.618,1739.837][4020.386,779.316,1219.712,636.891,2524.965,2060.294,-677.191,1753.628][4031.137,793.956,1231.179,630.006,2518.103,2062.865,-680.544,1742.207][4038.915,803.836,1236.990,611.857,2514.392,2071.113,-664.763,1721.554][4037.641,800.818,1235.224,622.340,2520.919,2073.549,-652.984,1739.100][4025.236,786.692,1225.747,641.227,2529.167,2068.721,-660.874,1759.842][4031.897,793.755,1230.262,635.482,2520.070,2057.210,-682.645,1749.896][4047.610,807.323,1238.778,614.762,2511.107,2059.490,-678.085,1737.088][4038.781,794.716,1225.121,606.157,2504.356,2057.590,-672.966,1736.373][4025.348,785.664,1221.165,630.677,2519.779,2056.785,-679.784,1746.297][4030.220,788.637,1224.205,633.694,2522.104,2063.580,-664.339,1757.339][4038.580,797.376,1228.094,607.051,2508.491,2064.340,-669.055,1729.578][4041.687,803.120,1230.709,610.337,2509.408,2061.255,-676.297,1724.616][4029.952,791.162,1221.769,631.392,2520.405,2060.898,-674.821,1744.129][4020.900,786.379,1219.198,629.693,2519.623,2056.919,-684.008,1735.702][4036.524,803.456,1231.223,609.286,2506.860,2060.294,-685.684,1718.715][4047.878,812.844,1239.583,619.344,2512.247,2064.608,-679.582,1723.275][4033.149,794.023,1223.669,631.169,2518.684,2058.305,-667.848,1745.381][4026.063,785.753,1216.628,628.933,2521.746,2064.988,-654.951,1756.802][4035.518,797.778,1224.719,615.031,2513.521,2065.860,-663.355,1736.954][4055.590,816.330,1238.734,614.740,2513.498,2069.839,-660.651,1739.904][4038.156,801.221,1227.088,626.408,2517.924,2061.747,-678.979,1740.709][4026.577,791.743,1221.813,637.896,2521.456,2056.048,-685.662,1746.141][4036.010,800.282,1226.396,617.534,2511.241,2059.736,-662.439,1737.848][4041.553,805.959,1229.100,603.050,2503.641,2060.048,-672.475,1720.548][4031.986,793.286,1219.131,614.293,2505.206,2056.785,-678.890,1732.439][4032.433,792.079,1219.601,632.130,2521.768,2057.992,-675.492,1757.652][4041.844,805.534,1231.089,628.822,2517.008,2059.400,-677.817,1745.850][4045.509,813.425,1234.956,604.503,2501.518,2062.596,-679.426,1716.860][4049.443,814.520,1237.594,620.350,2526.932,2084.926,-655.666,1740.843][4052.371,806.965,1232.609,645.720,2536.051,2083.048,-630.364,1793.817][4045.397,801.623,1225.166,624.687,2519.958,2062.664,-656.404,1767.442][4044.861,808.373,1227.200,595.808,2499.528,2048.247,-695.966,1709.551][4050.829,814.296,1234.040,612.013,2513.699,2058.148,-686.869,1721.777][4041.553,803.858,1227.424,630.789,2526.395,2065.480,-656.940,1755.640][4036.591,800.036,1223.758,628.911,2523.937,2065.905,-659.131,1749.382][4048.906,813.782,1232.118,609.197,2508.894,2058.752,-684.343,1721.621][4053.980,815.258,1230.732,602.447,2509.073,2066.531,-667.200,1727.633][4042.134,802.741,1222.037,622.697,2519.802,2059.333,-667.803,1747.370][4038.826,801.891,1223.959,629.403,2520.874,2053.700,-685.774,1746.118][4057.087,822.231,1239.918,618.696,2515.890,2062.306,-675.626,1732.282][4060.127,821.896,1236.633,604.793,2513.051,2071.694,-648.402,1732.841][4049.801,808.507,1225.390,617.601,2522.260,2071.247,-645.340,1756.020][4044.146,804.752,1223.512,629.045,2525.747,2061.770,-662.349,1762.614][4056.752,818.722,1233.928,617.668,2515.443,2062.194,-667.803,1747.929][4056.149,822.120,1235.224,599.898,2506.212,2059.221,-682.533,1717.352][4056.886,822.499,1237.840,624.709,2527.580,2062.373,-677.079,1740.441][4046.292,812.396,1229.994,634.588,2533.615,2069.794,-660.405,1757.831][4055.478,822.589,1236.119,621.334,2524.026,2071.202,-654.928,1749.985][4070.007,830.434,1238.488,598.334,2509.944,2067.603,-654.593,1746.856][4057.534,816.532,1226.686,602.178,2514.325,2064.720,-663.556,1745.314][4042.425,804.015,1218.215,616.305,2521.232,2066.396,-660.583,1756.266][4051.790,814.296,1226.284,608.236,2521.679,2069.079,-652.313,1755.461][4066.721,832.446,1241.818,604.324,2511.688,2062.172,-666.685,1730.986][4065.357,828.423,1237.370,612.035,2517.611,2068.006,-660.829,1737.356][4051.008,812.821,1225.904,623.636,2526.328,2064.720,-668.027,1753.003][4051.432,815.213,1227.580,616.595,2519.913,2058.797,-673.212,1744.956][4066.810,830.010,1236.119,593.439,2511.84', b'4,2067.738,-648.737,1734.249][4069.940,832.021,1238.711,605.866,2518.326,2070.442,-652.939,1741.558][4053.779,818.029,1227.625,619.411,2527.379,2070.286,-660.673,1756.355][4051.812,817.090,1227.178,619.188,2523.713,2068.564,-654.750,1759.328][4067.414,833.519,1239.382,605.106,2514.191,2066.150,-663.109,1737.088][4069.001,833.765,1239.091,600.010,2515.443,2062.865,-669.479,1729.533][4065.447,822.120,1228.921,615.612,2526.351,2071.783,-645.049,1771.599][4053.824,817.470,1224.183,618.763,2526.686,2066.844,-659.399,1759.149][4063.212,831.731,1234.241,598.334,2511.777,2061.725,-671.133,1731.232][4073.337,839.263,1239.695,594.623,2513.744,2069.302,-659.309,1734.339][4065.916,827.216,1229.748,611.387,2521.009,2067.872,-653.029,1757.518][4052.326,815.034,1221.769,618.517,2521.925,2059.892,-653.364,1764.469][4057.870,828.154,1232.319,603.475,2511.554,2058.663,-667.267,1732.461][4070.074,840.828,1239.762,590.153,2512.179,2069.637,-661.768,1722.068][4069.895,832.401,1233.481,612.125,2525.233,2076.187,-648.111,1757.048][4066.453,826.612,1229.681,624.016,2527.692,2070.979,-636.265,1779.869][4064.307,830.993,1231.961,606.649,2510.995,2060.674,-656.001,1744.621][4072.734,842.102,1239.471,591.293,2507.374,2059.802,-670.910,1721.643][4068.509,836.425,1235.627,605.017,2520.897,2060.294,-669.345,1735.121][4060.820,825.807,1227.558,620.887,2527.312,2063.424,-658.527,1762.055][4067.995,834.145,1233.548,613.064,2517.611,2062.462,-656.985,1755.081][4078.813,849.567,1245.417,600.949,2514.370,2072.320,-658.058,1730.092][4080.065,847.600,1242.109,605.017,2521.903,2086.043,-636.108,1750.454][4069.560,829.317,1224.473,610.828,2522.573,2080.590,-609.890,1784.943][4061.625,826.925,1222.439,605.352,2513.811,2059.266,-648.223,1755.707][4069.940,840.627,1235.001,597.373,2511.732,2058.842,-667.892,1723.029][4072.510,842.281,1234.979,598.602,2516.561,2067.044,-673.927,1725.085][4072.935,839.710,1233.235,619.389,2527.401,2070.420,-659.198,1761.943][4081.942,849.120,1243.003,630.207,2530.284,2074.197,-639.886,1780.518][4079.126,848.115,1239.829,601.485,2515.979,2068.967,-644.960,1750.097][4072.845,841.878,1233.324,589.058,2508.827,2063.044,-655.331,1729.220][4057.423,826.053,1219.198,599.921,2513.565,2060.652,-663.668,1733.959][4058.138,823.349,1219.712,616.774,2518.997,2062.083,-646.770,1758.076][4077.137,842.683,1234.219,603.341,2508.559,2060.563,-647.686,1745.179][4081.451,850.685,1238.801,594.534,2509.520,2062.060,-654.906,1726.136][4075.416,842.549,1231.358,607.654,2516.114,2066.441,-645.094,1749.873][4066.609,834.413,1227.133,624.977,2522.819,2061.770,-654.571,1757.607][4076.466,851.289,1241.081,614.919,2518.058,2065.547,-662.819,1734.965][4090.213,861.056,1246.065,601.195,2514.035,2076.276,-645.518,1733.557][4077.651,843.130,1230.106,603.788,2516.940,2070.040,-630.967,1749.091][4063.726,830.278,1221.389,618.562,2519.332,2061.010,-641.316,1759.283][4072.845,842.057,1229.681,611.566,2510.481,2056.919,-655.174,1743.011][4087.910,856.362,1237.907,594.646,2506.726,2064.966,-662.103,1728.706][4080.266,850.394,1234.666,605.241,2514.303,2070.196,-655.979,1737.446][4071.951,839.688,1227.759,625.067,2526.798,2071.828,-630.252,1767.688][4079.595,848.472,1233.973,620.730,2524.920,2071.426,-636.198,1762.301][4085.429,857.927,1240.298,602.022,2506.927,2059.691,-667.736,1725.823][4086.033,856.184,1238.801,611.454,2513.364,2060.071,-660.695,1734.629][4075.706,843.398,1227.938,621.222,2519.310,2061.188,-657.275,1754.254][4073.225,838.682,1223.892,616.416,2514.839,2061.971,-641.361,1755.372][4091.442,859.961,1240.768,609.376,2513.476,2065.636,-637.382,1742.855][4078.903,851.669,1229.592,591.584,2505.362,2062.619,-651.911,1722.604][4069.895,836.469,1217.522,610.024,2512.113,2063.647,-642.344,1751.572][4070.543,840.403,1224.138,626.341,2526.194,2065.145,-647.351,1751.125][4089.609,864.431,1244.411,620.551,2519.913,2070.084,-638.500,1737.423][4094.527,865.996,1242.153,607.386,2513.789,2069.973,-647.463,1735.255][4080.512,850.082,1229.771,620.551,2518.773,2061.814,-653.856,1750.164][4072.175,841.901,1222.842,624.128,2515.130,2055.265,-658.169,1749.158][4087.083,858.262,12']
INDEX_b'3.2106242179870605'___FLEX_[b'308,358,372,346,366\n307,357,372,347,366\n308,358,372,347,367\n308,358,372,347,367\n309,358,373,347,366\n308,359,372,346,368\n308,357,372,346,366\n308,357,372,347,368\n306,358,372,346,367\n307,357,372,347,367\n308,359,372,346,367\n308,358,372,347,367\n307,357,373,347,367\n308,358,373,347,366\n308,358,372,345,367\n308,358,372,345,367\n307,358,372,347,366\n308,358,372,347,366\n308,358,372,347,367\n308,358,372,347,367\n308,358,372,347,367\n308,358,372,347,367\n308,358,372,347,366\n307,358,372,347,367\n307,358,372,346,367\n308,358,372,348,367\n308,358,372,347,366\n307,357,373,347,367\n307,359,371,347,366\n308,358,372,347,367\n308,358,372,348,367\n308,358,372,347,366\n307,357,373,347,367\n307,358,374,347,367\n307,358,373,347,367\n308,358,372,348,367\n308,358,373,347,367\n307,358,373,347,367\n307,358,372,347,367\n308,358,372,346,365\n309,358,371,347,367\n308,358,372,345,367\n307,358,372,345,364\n307,359,372,346,367\n308,358,372,345,366\n308,358,372,346,367\n308,358,372,345,367\n308,358,372,345,366\n308,358,372,346,366\n308,358,372,347,367\n', b'308,358,372,347,367\n308,358,371,347,366\n308,358,372,347,367\n308,357,373,348,368\n308,357,373,347,366\n309,357,371,347,367\n308,357,372,346,366\n308,358,372,347,367\n308,358,372,346,365\n307,358,372,347,367\n309,357,372,346,366\n308,357,372,348,367\n307,357,372,347,367\n309,357,372,347,367\n308,358,372,347,367\n308,358,372,347,367\n308,357,372,347,367\n309,358,372,347,367\n308,358,372,347,367\n307,358,372,347,366\n308,358,373,347,366\n308,358,372,347,367\n308,358,372,347,366\n308,358,372,347,367\n309,357,373,347,367\n309,357,372,347,367\n308,358,372,346,366\n308,358,372,346,368\n308,358,372,347,367\n309,358,372,348,367\n308,358,372,347,367\n309,358,372,347,367\n309,358,372,346,368\n308,358,372,347,367\n308,358,372,346,367\n308,358,372,347,367\n308,357,372,347,367\n308,359,372,347,367\n308,358,372,347,367\n308,358,372,345,367\n307,358,372,347,367\n308,358,372,347,368\n307,358,372,346,366\n309,358,373,347,367\n308,357,373,347,367\n307,358,373,347,367\n308,358,372,346,366\n308,358,372,345,366\n307,358,373,344,367\n309,357,371,345,367\n', b'307,359,373,343,367\n306,358,372,345,367\n307,358,372,345,365\n308,357,373,346,366\n307,358,373,346,366\n306,357,372,347,367\n306,358,372,347,367\n306,358,372,348,367\n305,358,372,347,366\n306,358,372,347,367\n306,357,372,347,367\n306,358,372,348,367\n305,357,372,347,366\n305,358,373,347,366\n305,357,372,348,367\n304,357,373,347,367\n305,358,372,347,367\n305,358,373,347,366\n304,357,371,347,367\n304,358,373,347,367\n304,358,372,347,368\n303,358,372,347,367\n304,358,373,347,367\n303,357,372,347,367\n303,358,372,347,366\n303,358,372,348,367\n302,358,372,346,368\n302,358,372,347,367\n302,358,373,348,366\n301,357,372,347,367\n301,358,372,347,367\n301,357,372,348,366\n300,358,372,347,367\n298,358,372,347,367\n298,358,372,347,367\n298,358,372,347,368\n297,357,372,347,366\n297,357,372,348,368\n296,358,373,347,367\n295,358,373,348,367\n295,358,372,347,367\n294,357,372,347,367\n293,357,372,347,368\n293,358,372,347,367\n292,358,372,347,367\n291,358,372,348,367\n291,359,373,347,367\n290,359,372,348,366\n288,358,372,347,367\n288,359,372,348,367\n', b'287,358,372,347,367\n286,358,372,347,367\n285,358,372,347,367\n284,359,373,347,367\n283,359,372,348,367\n282,358,372,347,367\n281,359,373,347,367\n280,358,373,348,367\n278,358,372,347,366\n277,358,372,348,367\n275,358,371,347,367\n275,358,372,347,367\n274,359,371,348,367\n271,359,372,348,367\n270,359,372,347,367\n268,359,372,348,367\n267,359,372,348,367\n265,359,372,347,368\n263,360,372,347,367\n262,359,373,347,367\n260,359,372,347,367\n258,359,372,347,366\n258,359,373,348,365\n255,359,372,347,368\n253,360,373,348,367\n252,360,372,348,367\n251,360,371,347,367\n250,359,372,348,367\n248,360,373,347,367\n246,360,372,348,367\n246,360,371,347,367\n243,360,372,347,367\n242,360,373,346,367\n242,360,372,348,367\n239,361,372,348,367\n239,361,372,348,366\n237,361,373,348,367\n237,360,372,348,367\n235,361,372,348,367\n234,361,372,348,367\n233,361,372,347,367\n233,362,372,348,368\n229,362,372,347,366\n231,362,372,348,367\n231,363,372,348,368\n229,364,372,348,367\n228,363,372,348,367\n227,363,373,348,367\n226,363,372,348,367\n226,363,372,348,367\n', b'225,363,372,347,367\n225,364,373,347,367\n222,364,372,348,367\n223,364,372,348,368\n222,364,372,348,367\n221,364,372,348,367\n221,363,373,348,367\n221,365,372,348,367\n219,366,372,348,367\n219,367,372,348,367\n220,368,373,348,367\n219,367,372,348,367\n218,368,372,348,367\n219,368,372,348,367\n218,368,373,349,368\n218,368,373,348,368\n218,369,372,349,367\n217,368,373,348,367\n217,368,374,349,368\n216,368,373,348,367\n215,370,374,348,368\n216,369,374,349,367\n215,369,374,349,368\n215,369,374,349,367\n214,368,374,349,368\n214,369,373,349,367\n213,368,374,349,368\n212,369,374,348,368\n213,368,374,349,367\n215,369,376,349,368\n213,369,375,349,367\n209,369,376,349,367\n212,369,375,349,367\n213,370,376,349,367\n213,370,376,350,368\n213,369,376,349,368\n212,369,377,349,367\n211,369,376,349,368\n211,370,377,349,368\n212,369,377,350,367\n210,370,377,350,368\n211,370,377,350,368\n210,369,378,349,368\n211,370,377,350,368\n210,370,378,350,368\n210,369,378,350,368\n211,370,378,350,368\n209,370,378,350,368\n209,370,379,350,368\n210,369,379,350,368\n']___EMG_[b'35.359,614.539,2509.833,2064.720,-651.196,1738.273][4098.550,867.203,1239.851,601.932,2507.977,2073.661,-645.608,1735.948][4087.597,854.798,1230.754,619.009,2518.907,2076.745,-634.432,1752.578][4078.523,844.941,1224.339,631.012,2525.546,2069.749,-623.167,1765.631][4086.882,857.011,1232.967,618.808,2516.449,2062.127,-642.523,1745.068][4094.795,866.845,1239.002,603.005,2505.496,2055.466,-666.976,1717.910][4081.920,854.708,1229.033,609.711,2509.274,2062.239,-668.585,1723.118][4077.383,847.310,1224.428,629.112,2525.948,2069.973,-651.375,1751.930][4096.359,861.816,1234.666,623.077,2520.226,2073.325,-633.158,1762.971][4101.411,868.231,1237.616,606.090,2507.776,2066.329,-640.288,1739.592][4093.632,861.749,1233.615,621.893,2515.532,2062.015,-638.947,1738.653][4081.831,848.986,1223.937,638.276,2522.081,2061.635,-642.702,1754.321][4077.204,851.669,1226.999,630.789,2513.297,2056.182,-655.152,1730.830][4097.946,870.734,1240.410,612.617,2510.660,2066.329,-643.507,1726.337][4102.439,870.109,1237.415,613.622,2513.789,2069.816,-641.741,1739.592][4077.494,844.918,1215.443,618.786,2511.844,2055.310,-654.325,1742.788][4080.400,843.756,1212.828,615.589,2506.569,2053.522,-642.456,1753.025][4087.978,858.173,1222.506,590.980,2490.498,2045.721,-664.920,1716.636][4085.228,859.648,1226.351,598.669,2501.786,2052.091,-673.302,1704.052][4092.716,863.940,1235.381,646.591,2528.698,2067.357,-640.512,1748.979][4089.833,860.855,1232.073,642.344,2529.323,2071.180,-621.088,1757.384][4102.506,877.038,1240.879,620.998,2512.179,2068.542,-627.078,1742.788][4095.577,866.734,1225.345,589.348,2493.762,2057.188,-649.229,1726.315][4063.010,832.088,1190.856,576.384,2485.804,2041.698,-675.604,1713.663][4076.600,848.964,1216.963,626.922,2515.420,2055.690,-651.553,1741.245][4099.332,878.066,1247.563,647.955,2529.882,2066.620,-638.455,1736.038][4111.894,888.102,1250.401,626.385,2519.533,2074.711,-630.677,1732.349][4106.083,874.579,1236.186,630.699,2520.047,2069.749,-629.090,1754.813][4095.242,864.655,1227.804,633.538,2518.393,2058.842,-635.706,1759.865][4101.344,875.540,1236.878,626.922,2517.834,2066.441,-635.348,1741.156][4107.267,883.140,1240.052,608.884,2507.173,2059.467,-645.384,1720.213][4099.556,874.579,1233.906,621.133,2511.397,2058.126,-643.998,1733.624][4086.212,858.419,1220.428,629.403,2513.364,2048.336,-660.740,1743.592][4094.012,867.873,1227.625,625.514,2512.850,2053.522,-651.687,1736.909][4102.573,879.496,1235.224,606.269,2504.066,2057.880,-649.475,1712.747][4101.702,876.769,1233.615,616.193,2511.531,2062.641,-642.702,1725.242][4098.885,867.829,1225.054,632.063,2521.500,2066.285,-627.749,1762.077][4098.595,873.372,1231.715,633.583,2523.713,2066.821,-639.014,1747.124][4095.510,877.149,1233.123,607.140,2506.927,2062.194,-647.105,1705.840][4104.786,880.122,1235.068,621.066,2516.203,2067.089,-620.194,1726.762][4093.632,868.209,1225.725,636.466,2521.009,2058.171,-635.482,1744.755][4094.482,869.505,1226.105,637.025,2518.840,2058.707,-636.131,1747.437][4103.199,878.714,1229.525,609.152,2501.540,2055.086,-645.541,1721.598][4105.479,882.357,1232.296,614.293,2504.267,2055.176,-655.063,1712.121][4096.046,871.785,1224.496,630.207,2518.438,2064.698,-642.479,1736.373][4094.862,870.220,1224.227,638.723,2522.014,2063.222,-635.237,1748.599][4104.920,881.575,1233.883,624.150,2504.938,2052.069,-647.999,1724.102][4102.059,881.128,1230.016,608.750,2496.377,2042.502,-658.304,1703.561][4097.812,877.127,1227.647,630.610,2513.364,2055.936,-637.829,1734.562][4092.627,867.471,1220.249,631.504,2512.425,2054.215,-644.490,1746.990][4097.164,879.049,1229.815,626.273,2512.761,2059.736,-644.445,1718.044][4114.040,891.991,1240.991,619.456,2513.923,2067.983,-638.835,1723.051][4111.469,880.703,1230.106,624.418,2512.626,2064.094,-630.409,1746.006][4095.979,870.332,1220.137,634.700,2514.817,2055.980,-629.425,1746.923][4093.431,867.270,1214.571,615.880,2497.718,2040.357,-654.280,1717.575][4106.216,885.665,1229.547,600.278,2494.924,2044.760,-658.996,1700.990][4109.547,886.761,1231.894,617.310,2511.308,2062.149,-640.065,1725.041][4101.209,875.630,1224.451,637.986,2521.903,2064.675,-631.012,1745.91', b'7][4111.089,886.761,1231.983,631.593,2516.784,2068.855,-627.682,1740.933][4125.082,900.686,1241.103,610.068,2507.240,2071.358,-626.564,1731.567][4120.946,895.053,1236.990,615.969,2512.783,2073.795,-631.549,1735.255][4103.199,875.853,1221.322,625.826,2511.643,2066.732,-612.415,1750.454][4104.496,880.234,1228.586,628.889,2513.230,2058.864,-610.046,1755.931][4107.759,889.801,1232.766,612.102,2499.729,2040.848,-665.076,1701.459][4105.613,890.583,1231.983,610.225,2505.720,2059.601,-663.713,1699.492][4102.752,875.227,1217.567,625.268,2511.889,2078.690,-633.270,1736.954][4092.805,866.398,1209.721,620.686,2481.111,2065.726,-635.706,1731.232][4101.500,878.871,1220.718,605.017,2478.607,2053.388,-644.200,1699.314][4121.795,898.942,1235.783,603.743,2511.531,2045.632,-645.876,1714.714][4098.706,873.819,1214.326,618.786,2506.145,2041.295,-650.369,1730.718][4085.116,858.173,1201.518,619.233,2482.362,2045.207,-642.590,1723.319][4110.798,890.337,1230.061,619.121,2511.509,2061.479,-639.930,1708.701][4124.478,899.613,1234.509,612.393,2536.454,2072.029,-644.177,1707.405][4114.598,887.208,1225.568,627.369,2514.214,2050.415,-639.416,1729.578][4100.495,877.574,1221.568,631.906,2493.069,2029.114,-639.550,1739.949][4091.688,874.221,1217.969,612.214,2477.914,2021.089,-664.719,1699.761][4106.708,890.896,1229.681,610.292,2484.039,2040.871,-655.912,1699.917][4128.300,902.094,1234.107,630.096,2496.198,2087.854,-619.300,1754.567][4097.924,868.186,1204.223,620.239,2441.168,2079.696,-628.375,1742.229][4078.098,852.853,1189.694,585.705,2461.933,2046.794,-643.618,1697.369][4121.282,896.685,1225.457,594.243,2496.243,2048.090,-638.254,1707.092][4093.342,865.750,1195.930,579.335,2479.859,2022.028,-670.776,1697.056][4067.235,847.869,1193.136,616.886,2534.732,1999.386,-695.542,1696.386][4084.558,876.524,1219.265,636.242,2531.313,2029.315,-661.947,1702.152][4109.010,892.572,1226.507,608.794,2467.498,2082.199,-644.445,1692.072][4080.691,862.219,1197.651,583.291,2476.305,2071.135,-687.271,1666.188][4054.293,831.328,1173.489,587.672,2493.874,2018.675,-695.229,1674.682][4030.109,824.601,1167.141,587.381,2483.256,2035.327,-688.478,1659.304][4050.538,837.028,1174.003,557.944,2457.440,1990.423,-697.888,1635.097][4090.838,865.348,1199.193,575.133,2416.782,1966.685,-700.146,1669.183][4177.519,943.624,1266.517,654.414,2510.302,2130.076,-597.149,1782.775][4061.021,842.817,1180.932,603.363,2524.473,2029.561,-656.180,1678.571][3944.904,749.320,1107.775,519.142,2466.180,1852.222,-833.362,1513.191][4033.663,828.490,1167.275,539.683,2410.792,1899.406,-770.889,1597.278][3995.173,797.868,1143.091,539.549,2351.828,1884.744,-768.833,1610.063][4118.309,904.441,1233.615,631.459,2487.101,2032.243,-636.131,1749.560][4118.845,899.613,1229.502,608.057,2480.217,2015.859,-658.929,1720.213][3966.786,761.390,1109.518,479.646,2335.422,1850.434,-849.053,1536.526][3964.708,761.099,1100.868,484.921,2339.378,1823.522,-840.560,1567.103][4111.782,901.625,1232.319,639.327,2529.279,2021.335,-646.792,1751.505][4150.294,928.983,1251.541,633.337,2528.183,2076.723,-614.919,1757.227][4141.622,916.153,1233.570,597.484,2516.382,2061.635,-643.753,1716.927][4132.413,895.545,1215.398,593.752,2498.634,2052.985,-652.917,1730.025][4058.764,830.278,1158.357,556.916,2425.321,1942.948,-730.701,1682.170][4084.759,869.215,1190.275,567.153,2447.628,1955.599,-705.466,1690.574][4124.657,909.180,1229.815,577.815,2503.038,2046.526,-650.682,1699.470][4107.714,881.150,1200.222,561.565,2498.791,2077.885,-656.270,1690.060][4046.917,801.958,1122.549,504.077,2381.109,2002.694,-757.746,1662.255][3922.955,705.108,1033.142,406.511,2253.883,1883.134,-913.784,1505.166][4113.593,910.901,1227.178,572.339,2507.150,2044.872,-639.439,1687.758][4116.632,894.897,1204.401,550.702,2517.410,2042.860,-637.159,1698.956][3977.493,740.670,1055.740,419.185,2313.897,1848.623,-819.169,1575.083][4066.967,861.079,1177.780,529.222,2406.858,1917.713,-718.989,1674.548][4185.476,977.174,1287.349,614.338,2552.234,2044.134,-603.095,1755.819][4125.841,901.803,1206.189,525.221,2458.535,1972.005,-676.654,1685.523][4031.606,808.239,1119.107,480.071,2392.732,189']
INDEX_b'3.6106269359588623'___FLEX_[b'208,370,379,350,369\n209,369,380,351,368\n208,370,378,351,368\n208,368,379,350,368\n208,368,379,351,367\n208,367,381,351,368\n209,367,381,351,368\n209,368,381,351,368\n207,368,381,351,368\n208,368,381,352,368\n207,368,381,351,368\n206,368,382,352,369\n206,368,382,352,369\n207,367,383,352,368\n207,369,383,352,368\n206,369,382,352,369\n206,368,383,352,369\n207,369,384,352,369\n206,369,384,353,369\n206,369,384,352,369\n206,371,384,353,369\n206,368,384,352,369\n205,368,385,353,369\n206,368,385,353,369\n206,368,385,352,369\n205,368,385,353,369\n205,368,385,353,369\n206,369,386,353,370\n204,369,386,353,370\n204,369,386,353,370\n205,369,385,353,371\n205,370,388,354,371\n204,369,387,354,369\n203,369,387,353,370\n203,369,388,353,370\n203,369,388,354,371\n202,369,388,354,370\n203,370,388,354,370\n203,369,387,354,370\n203,369,389,354,370\n203,369,389,356,370\n202,369,389,355,370\n203,368,389,355,370\n203,369,389,354,371\n202,369,387,355,370\n202,369,390,355,370\n203,369,390,355,370\n203,369,391,356,370\n201,368,390,356,370\n202,369,390,356,368\n', b'199,370,391,356,370\n202,371,391,356,371\n201,370,391,355,371\n199,370,391,356,370\n199,369,392,355,370\n198,369,392,356,370\n198,369,392,356,370\n199,369,392,356,371\n199,368,393,356,371\n200,368,393,356,371\n199,369,393,356,371\n199,368,392,356,371\n198,367,393,356,371\n199,368,393,357,371\n198,370,394,356,372\n198,370,393,356,371\n199,370,393,356,370\n199,370,393,356,371\n198,369,394,356,371\n198,371,394,357,371\n199,370,393,357,371\n200,369,393,357,371\n199,369,394,357,371\n199,368,395,357,371\n199,369,395,357,371\n198,368,395,357,371\n198,368,395,357,372\n198,368,395,358,371\n198,368,395,357,371\n199,368,396,357,371\n198,367,395,358,371\n199,367,396,357,371\n199,367,396,358,371\n200,366,396,357,372\n201,367,396,358,371\n201,367,396,358,371\n200,366,397,356,371\n201,367,396,357,371\n204,366,396,358,371\n198,366,397,358,371\n200,365,397,357,371\n201,365,396,358,371\n201,365,398,357,370\n201,366,397,359,371\n202,366,396,358,371\n201,365,397,358,371\n200,365,397,358,371\n200,365,398,358,372\n200,365,397,358,372\n200,365,397,358,371\n', b'201,365,398,358,371\n201,365,397,358,371\n201,365,398,359,371\n202,365,398,358,371\n200,365,398,359,371\n202,365,399,359,371\n201,366,398,359,371\n200,366,399,358,371\n201,366,399,359,371\n200,366,399,359,371\n200,367,398,359,371\n202,367,399,359,371\n200,366,399,359,371\n201,367,400,360,371\n200,366,399,360,372\n201,365,400,359,372\n199,367,399,360,372\n201,366,399,360,371\n199,367,399,360,371\n201,367,399,359,371\n201,368,400,360,371\n201,368,399,359,371\n201,367,399,360,371\n202,368,401,359,372\n201,368,400,360,372\n201,368,400,360,372\n201,368,401,360,373\n200,368,401,359,373\n199,368,400,360,372\n201,368,400,360,371\n202,368,401,359,369\n200,368,401,359,372\n200,368,400,360,371\n201,369,401,360,371\n200,369,401,360,372\n202,369,401,362,372\n201,369,401,360,372\n200,369,401,361,372\n201,369,402,360,373\n201,368,402,360,372\n201,368,402,360,372\n201,369,402,361,372\n200,368,402,359,372\n202,368,402,359,372\n200,369,401,360,371\n200,368,402,360,371\n202,369,402,360,373\n201,368,403,360,372\n201,369,402,360,372\n200,369,402,360,372\n', b'201,369,402,360,372\n201,369,402,360,373\n199,368,403,360,372\n200,368,403,360,373\n199,369,403,360,372\n200,369,403,360,372\n199,369,402,361,372\n199,369,403,359,373\n201,369,403,360,373\n200,369,403,360,372\n198,369,403,360,373\n200,369,404,361,372\n199,369,403,360,372\n199,369,403,360,373\n201,370,403,360,373\n199,369,403,361,372\n199,367,402,360,371\n199,368,403,361,373\n200,370,404,360,373\n199,369,404,360,373\n199,369,403,360,373\n199,370,404,360,373\n198,370,404,360,373\n200,369,404,360,373\n199,370,404,360,373\n199,370,404,360,373\n198,370,404,360,372\n199,369,404,360,373\n199,369,404,360,373\n201,369,404,360,374\n199,370,405,361,373\n200,370,403,360,373\n199,369,404,360,372\n198,369,404,361,372\n201,370,404,361,372\n202,370,404,361,372\n200,370,405,361,373\n200,370,404,360,372\n200,370,405,360,373\n199,370,404,360,372\n199,370,405,360,373\n200,370,405,361,373\n201,370,404,360,372\n201,370,404,360,372\n201,370,404,361,373\n200,370,404,361,373\n199,370,405,360,372\n202,370,404,360,372\n200,370,405,360,372\n201,370,404,361,372\n', b'200,370,405,360,373\n199,371,404,360,373\n200,370,405,361,373\n201,371,405,360,372\n201,371,404,361,373\n201,370,405,360,373\n200,371,405,361,373\n201,371,405,360,373\n201,371,405,360,373\n201,371,404,361,372\n200,371,404,361,372\n202,371,405,361,373\n201,372,405,360,373\n200,371,405,361,373\n201,370,405,361,373\n201,370,405,361,373\n200,371,405,361,373\n201,371,406,361,373\n200,371,405,361,373\n201,372,405,361,373\n201,371,405,361,373\n200,371,405,361,373\n201,371,405,361,373\n202,371,405,361,373\n202,371,405,361,373\n200,371,405,361,373\n203,371,405,361,373\n201,369,405,361,374\n202,371,406,361,373\n200,371,405,361,373\n201,371,406,361,374\n197,370,406,361,371\n201,371,405,361,373\n202,371,405,361,373\n201,371,405,361,373\n201,371,406,361,374\n200,370,405,361,373\n202,371,405,362,374\n202,371,405,361,373\n203,370,405,361,373\n201,371,406,361,373\n201,371,405,361,373\n202,371,406,361,373\n202,371,406,361,374\n201,371,406,361,373\n204,371,405,361,373\n200,371,405,362,373\n201,371,405,361,373\n201,371,406,361,373\n201,372,406,361,374\n']___EMG_[b'2.857,-779.338,1611.695][4032.992,833.117,1159.541,533.514,2481.692,1985.260,-720.888,1645.558][4137.129,921.361,1222.953,547.506,2526.149,2093.129,-622.585,1710.422][4102.685,884.011,1184.933,483.424,2409.652,2013.982,-699.811,1649.089][3949.151,741.206,1057.975,392.765,2231.509,1811.497,-893.578,1505.882][4097.946,897.422,1205.273,536.375,2486.855,1952.268,-701.197,1696.900][4206.196,992.932,1286.835,588.991,2558.939,2078.243,-593.215,1783.803][4135.229,907.123,1200.423,487.313,2462.179,2023.347,-672.944,1688.563][4115.716,887.834,1177.848,466.704,2436.184,2118.364,-710.830,1682.885][4128.121,916.287,1219.422,538.811,2567.724,2187.252,-610.828,1744.352][4016.810,810.094,1120.180,413.172,2382.875,1776.137,-790.984,1593.277][4053.869,845.857,1147.606,413.105,2353.773,1818.918,-799.321,1605.280][4169.539,958.465,1249.530,524.730,2512.671,2069.302,-589.706,1773.991][4155.748,936.136,1227.692,515.074,2501.406,2038.680,-594.959,1775.399][4094.817,877.664,1176.059,455.149,2476.417,1969.479,-692.211,1688.786][4051.231,845.477,1144.163,385.165,2386.809,1849.473,-803.679,1603.313][4075.796,867.583,1156.457,398.822,2353.035,1865.231,-753.678,1659.036][4151.479,939.913,1226.954,497.058,2543.249,2075.762,-600.122,1783.759][4131.787,915.773,1199.082,449.404,2531.648,2088.301,-640.735,1740.307][4048.035,837.945,1130.261,358.500,2369.396,1871.199,-786.781,1605.705][4100.919,905.469,1190.253,410.423,2404.355,1911.476,-721.537,1674.995][4146.494,941.143,1233.459,477.053,2472.237,1991.272,-649.385,1759.216][4044.280,825.763,1119.845,366.859,2364.703,1837.962,-803.031,1641.825][4063.614,863.649,1151.249,373.788,2423.108,1987.651,-771.605,1634.158][4240.796,1020.983,1288.422,518.516,2637.863,2338.618,-473.097,1847.685][4145.421,924.066,1200.780,453.785,2483.122,2020.933,-598.311,1765.475][3966.831,751.533,1039.714,286.080,2256.386,1682.997,-902.183,1555.525][4063.010,868.164,1145.549,344.262,2409.898,1867.354,-743.397,1657.292][4230.760,1033.791,1300.626,480.227,2546.713,2075.829,-578.150,1800.455][4197.635,984.773,1250.647,451.617,2496.466,2091.095,-608.459,1803.808][4100.718,869.416,1142.129,355.907,2363.541,1970.418,-705.220,1724.012][4000.493,799.276,1075.476,277.363,2290.517,1776.651,-846.148,1569.070][4159.749,967.696,1229.346,404.969,2469.443,2011.009,-632.934,1735.188][4172.445,963.338,1224.116,415.251,2493.270,2038.323,-627.101,1773.298][4091.777,872.143,1144.566,362.054,2430.976,1911.007,-743.330,1697.839][4110.776,911.974,1171.567,353.336,2397.023,1914.561,-735.417,1688.853][4189.030,991.859,1251.720,437.602,2561.130,2085.194,-590.354,1764.134][4136.391,934.638,1203.060,408.232,2525.501,2035.931,-650.480,1726.203][4185.543,982.828,1241.215,442.274,2548.836,2098.806,-598.401,1811.855][4194.350,975.050,1221.478,394.687,2462.693,2021.805,-609.733,1798.824][4101.567,893.019,1153.283,313.640,2352.141,1836.218,-770.509,1649.067][3998.369,806.831,1070.380,254.318,2282.426,1727.231,-876.077,1554.698][4140.348,936.382,1198.188,408.053,2458.312,1936.980,-664.562,1760.714][4226.625,1030.371,1279.928,468.001,2546.400,2085.664,-536.531,1862.370][4192.807,990.272,1239.494,415.497,2504.982,2068.408,-623.636,1770.415][4106.977,901.178,1157.709,341.557,2406.277,1926.474,-724.353,1679.421][4130.289,935.555,1184.218,381.075,2449.438,1922.429,-674.039,1749.672][4194.014,991.032,1238.957,430.964,2505.876,2026.588,-600.770,1822.293][4109.994,913.717,1170.293,348.263,2392.039,1909.375,-730.723,1686.998][4067.660,888.683,1147.851,322.625,2366.603,1848.355,-780.903,1638.629][4133.888,946.641,1193.270,394.776,2477.266,1984.768,-666.507,1755.417][4233.107,1027.755,1257.040,450.097,2567.299,2121.158,-535.369,1880.989][4175.015,965.931,1198.523,371.262,2431.400,1987.986,-634.052,1767.799][4063.122,862.353,1106.881,270.389,2312.757,1857.475,-796.482,1613.930][4155.479,972.703,1213.476,395.447,2497.830,2035.506,-622.138,1765.274][4187.912,999.212,1238.667,428.371,2545.282,2008.103,-610.694,1802.869][4163.526,961.550,1199.819,366.993,2446.823,1937.337,-680.566,1734.674][4049.600,861.414,1100.913,248.529,2318.412,1839.660,-783.831,1615.025][4211.516,1024.358,12']
INDEX_b'4.01167631149292'___FLEX_[b'202,371,405,361,374\n201,371,406,361,373\n202,371,406,361,374\n203,371,406,361,373\n200,371,406,362,373\n202,371,406,361,374\n201,371,405,361,373\n201,371,405,362,373\n203,371,406,360,373\n203,371,405,362,373\n202,371,406,362,373\n203,372,406,362,373\n203,371,406,362,374\n203,371,406,362,373\n203,372,406,362,373\n202,370,406,362,373\n203,370,406,361,373\n203,372,406,362,374\n202,371,406,362,374\n202,371,406,363,373\n203,372,406,362,374\n204,372,406,362,373\n203,371,406,362,374\n202,371,406,362,373\n203,371,406,360,373\n203,373,406,363,374\n205,372,406,362,373\n203,371,406,362,374\n203,371,406,362,374\n204,372,406,362,374\n204,371,407,362,373\n204,372,406,362,376\n204,372,407,361,373\n204,371,406,362,375\n203,371,407,362,374\n203,372,406,362,374\n205,372,406,362,373\n204,372,406,362,374\n205,372,407,362,374\n203,372,406,362,374\n206,372,406,362,373\n205,372,407,362,374\n203,372,407,362,374\n206,374,408,362,374\n204,372,406,361,373\n205,372,406,362,374\n205,372,407,363,374\n205,372,407,362,375\n205,372,408,363,375\n206,372,406,363,374\n', b'205,372,407,362,374\n204,372,407,363,374\n205,372,405,363,374\n205,372,406,363,374\n205,372,407,363,375\n205,371,407,362,374\n206,372,406,362,374\n206,371,407,362,375\n205,372,406,363,374\n202,372,404,362,375\n205,372,407,363,374\n205,372,406,363,373\n206,372,406,364,374\n202,371,406,363,375\n205,372,406,363,374\n205,372,407,363,374\n205,372,407,363,374\n207,372,407,362,374\n205,372,407,363,374\n206,372,406,363,374\n206,372,407,363,375\n206,371,406,363,374\n204,372,408,363,374\n205,372,406,363,375\n206,372,407,362,374\n206,372,407,363,374\n206,372,407,363,375\n205,372,407,363,374\n206,371,406,364,374\n207,371,406,363,374\n206,372,407,363,374\n207,372,406,363,375\n206,372,406,362,374\n206,372,407,363,374\n207,372,407,363,375\n207,372,407,363,375\n205,372,406,363,374\n207,372,406,363,374\n205,371,404,362,375\n206,371,407,363,375\n205,372,407,363,374\n207,372,407,363,374\n206,371,406,363,375\n207,372,407,363,375\n206,372,407,363,375\n206,371,407,363,374\n206,371,407,363,374\n206,372,407,363,374\n206,371,407,363,375\n207,372,406,364,375\n', b'207,372,407,363,375\n207,371,407,363,375\n207,371,405,363,374\n207,372,407,363,375\n206,371,407,363,375\n208,372,407,363,375\n206,372,407,363,375\n207,371,407,363,374\n207,371,407,363,374\n207,372,407,363,375\n207,372,407,363,375\n207,372,408,363,375\n206,371,407,363,374\n207,372,406,363,374\n207,371,407,363,375\n207,372,407,364,375\n206,369,406,364,375\n207,372,407,364,376\n207,371,407,364,376\n208,372,406,363,375\n208,372,407,363,375\n207,371,408,364,375\n208,372,407,363,375\n208,371,407,364,376\n207,372,407,363,375\n208,372,407,364,375\n207,373,407,363,375\n206,371,407,363,375\n207,371,407,363,375\n207,371,407,364,375\n208,371,408,363,375\n208,371,406,363,375\n208,373,407,364,374\n208,372,407,363,375\n207,372,407,364,375\n207,372,407,364,375\n208,372,408,363,375\n208,372,407,364,375\n208,372,407,363,375\n207,372,406,363,375\n207,372,407,363,375\n207,370,407,364,374\n208,373,408,363,375\n208,372,407,363,375\n208,372,408,363,375\n208,372,407,364,375\n208,372,407,365,375\n207,372,407,364,375\n208,372,407,364,375\n208,372,407,364,375\n', b'208,372,407,364,375\n207,371,407,364,376\n208,371,407,364,375\n208,371,407,363,376\n208,372,406,364,375\n209,372,407,364,375\n208,372,407,364,375\n208,372,408,364,375\n208,372,407,364,375\n208,372,407,364,375\n209,371,407,364,376\n209,371,408,364,375\n207,372,407,364,375\n209,371,407,364,375\n209,372,407,365,376\n208,372,407,364,375\n207,372,407,365,375\n209,371,408,364,375\n208,372,408,365,375\n209,372,407,364,375\n209,371,407,362,375\n208,372,407,364,375\n209,372,407,364,375\n209,372,407,365,376\n209,371,408,364,375\n209,372,407,364,375\n209,371,407,364,376\n209,372,407,364,376\n208,371,408,364,376\n209,371,407,365,375\n208,372,407,364,375\n210,372,407,364,375\n207,372,409,364,376\n209,371,407,365,376\n209,372,407,364,375\n210,371,407,364,375\n208,372,408,365,376\n210,372,407,364,375\n209,372,407,365,375\n209,372,407,365,375\n209,371,407,364,375\n209,372,407,364,376\n207,372,407,365,375\n210,372,407,364,375\n209,372,407,365,375\n209,372,407,365,375\n208,371,408,364,376\n209,372,407,365,376\n208,372,408,365,375\n209,371,407,365,375\n']___EMG_[b'48.032,391.133,2523.646,2103.835,-582.129,1805.328][4190.751,1000.330,1232.900,410.467,2544.701,2115.146,-594.288,1803.562][4113.257,922.434,1161.039,345.759,2474.517,1906.805,-703.543,1695.357][4021.503,835.151,1071.632,214.197,2266.087,1754.791,-838.794,1559.571][4220.479,1039.043,1247.965,369.206,2465.196,2021.559,-566.371,1812.436][4240.036,1045.905,1264.371,422.470,2534.777,2068.363,-543.840,1856.446][4189.074,998.519,1228.854,418.156,2508.715,2075.091,-615.589,1777.455][4109.860,913.136,1150.221,336.438,2403.215,1892.947,-736.579,1654.118][4141.890,972.502,1192.734,355.683,2485.804,1962.237,-632.912,1721.800][4185.252,1003.817,1223.736,407.226,2498.791,2005.421,-587.605,1802.288][4110.418,931.688,1164.280,357.047,2374.940,1847.282,-747.554,1683.667][4156.776,981.733,1202.434,390.865,2418.012,1911.923,-695.117,1705.974][4214.153,1040.585,1251.027,445.761,2500.177,2053.477,-580.162,1785.658][4172.288,992.373,1217.343,452.735,2480.217,1980.320,-627.391,1769.543][4107.088,918.187,1148.656,398.956,2396.286,1899.697,-711.054,1706.846][4159.034,979.342,1197.137,434.876,2447.292,1963.780,-650.704,1729.310][4202.597,1034.796,1246.870,491.694,2532.430,2025.984,-586.867,1763.441][4162.163,987.366,1204.826,480.898,2475.366,1995.251,-617.266,1757.518][4062.854,875.227,1110.636,404.298,2360.635,1858.413,-758.685,1664.043][4093.409,920.244,1140.654,405.416,2336.271,1869.209,-768.833,1646.675][4231.878,1064.077,1272.440,539.705,2494.745,2059.132,-570.595,1785.144][4204.721,1036.182,1250.267,561.543,2513.789,2003.968,-583.738,1787.111][4118.778,934.146,1156.770,508.010,2459.206,1923.904,-694.558,1704.611][4021.593,857.636,1081.958,417.396,2344.117,1818.247,-825.025,1569.964][4255.280,1086.205,1279.481,590.064,2542.578,2084.702,-548.780,1794.130][4222.938,1053.125,1255.453,586.465,2477.981,2012.842,-577.211,1785.815][4186.459,1011.372,1218.192,578.597,2464.458,1979.046,-614.405,1767.531][4128.188,948.854,1163.319,534.833,2404.109,1893.059,-699.341,1680.583][4146.382,990.383,1194.768,536.487,2425.030,1932.018,-678.152,1672.737][4209.258,1041.144,1236.454,596.322,2486.833,2032.913,-589.952,1753.762][4130.513,951.871,1161.933,561.722,2408.043,1967.311,-665.054,1700.610][4055.411,878.938,1093.090,488.229,2318.055,1841.560,-786.871,1600.631][4222.870,1060.568,1253.933,627.033,2513.878,2115.391,-570.752,1769.632][4250.721,1081.914,1277.804,686.690,2571.725,2130.725,-505.708,1792.409][4136.771,977.621,1187.369,615.053,2438.039,1902.379,-650.883,1694.888][3996.224,823.416,1050.666,487.894,2260.566,1706.019,-866.443,1536.593][4156.396,1005.851,1203.150,597.999,2402.164,1933.783,-656.761,1681.566][4235.074,1078.650,1270.987,683.986,2512.828,2119.459,-553.429,1761.966][4196.495,1035.020,1235.694,680.521,2508.849,2002.761,-609.420,1750.901][4145.153,972.547,1174.383,631.638,2428.495,1855.843,-689.194,1698.286][4055.299,907.503,1125.209,576.250,2355.248,1809.597,-775.091,1580.849][4220.054,1069.576,1263.254,696.011,2508.469,2012.752,-584.431,1746.990][4197.881,1039.334,1236.409,701.778,2517.097,1995.005,-611.007,1746.476][4100.718,929.564,1137.503,609.174,2390.988,1871.623,-734.724,1652.330][4062.005,917.047,1121.074,570.796,2303.302,1830.362,-774.644,1579.553][4257.649,1100.958,1286.522,727.393,2537.951,2080.053,-496.902,1801.707][4231.431,1067.139,1255.117,716.731,2527.580,2031.639,-560.850,1779.668][4177.898,1023.397,1218.304,700.660,2489.850,1972.944,-636.824,1722.761][4176.982,1009.539,1198.657,665.054,2443.023,1954.258,-648.536,1700.208][4123.137,980.146,1170.293,627.883,2401.091,1901.664,-713.669,1619.808][4193.299,1044.273,1229.480,701.219,2483.033,2001.219,-616.461,1713.418][4051.321,901.759,1109.563,622.854,2341.189,1815.833,-782.177,1585.365][4145.533,993.423,1181.178,668.161,2440.117,1999.386,-636.801,1692.563][4236.460,1085.267,1258.023,724.867,2525.255,2056.182,-563.465,1743.682][4196.987,1044.899,1225.166,713.758,2462.179,1976.766,-629.850,1699.694][4117.549,957.884,1148.589,667.848,2360.322,1897.954,-696.458,1653.202][4121.214,969.842,1161.441,685.528,2399.884,1956.135,-664.495,1655.169][4207.023,1066.648,1245.529,732.645,2478.89', b'8,2083.875,-557.989,1727.298][4204.586,1053.639,1228.206,728.242,2519.645,2055.556,-606.313,1706.645][4181.050,1026.034,1206.525,735.171,2509.050,1948.245,-649.363,1707.204][4139.074,985.980,1175.478,697.508,2347.179,1851.261,-713.266,1657.695][4152.038,1012.579,1190.432,669.591,2357.863,1878.552,-694.424,1645.088][4208.677,1077.488,1253.553,751.600,2498.545,1993.686,-583.872,1714.960][4162.252,1019.038,1202.390,736.333,2472.081,1954.682,-623.256,1701.102][4070.655,912.309,1106.434,651.978,2327.063,1790.665,-756.472,1604.363][4161.805,1032.986,1211.755,695.720,2389.714,1895.003,-669.636,1665.182][4230.224,1100.175,1268.998,759.512,2510.615,2038.211,-575.267,1725.666][4195.735,1056.232,1230.106,742.100,2466.962,1972.407,-615.321,1716.413][4138.403,990.518,1171.477,700.995,2413.675,1912.415,-668.295,1675.174][4055.120,916.176,1102.991,609.465,2316.378,1803.070,-795.409,1547.366][4161.560,1023.665,1192.331,668.697,2417.699,1949.631,-650.570,1659.751][4229.129,1090.050,1265.444,769.414,2509.184,2039.127,-536.643,1766.995][4202.039,1067.989,1246.579,775.829,2498.433,1994.223,-583.895,1744.867][4197.657,1059.271,1225.546,734.545,2483.748,1985.684,-610.806,1706.891][4185.431,1044.810,1208.335,683.069,2442.822,1966.708,-645.161,1659.416][4132.815,984.952,1155.518,662.573,2406.009,1909.152,-695.162,1626.067][4108.385,977.956,1144.588,649.296,2377.510,1887.359,-715.233,1629.017][4176.133,1043.625,1212.202,724.174,2494.969,2030.030,-603.631,1698.464][4221.283,1085.177,1242.288,713.870,2480.820,2026.744,-572.562,1708.031][4184.805,1041.927,1204.468,686.064,2453.395,1964.025,-644.535,1668.535][4100.204,954.196,1133.412,659.399,2456.993,1956.761,-729.852,1608.633][4118.287,995.658,1162.402,658.237,2434.865,1934.745,-668.809,1638.964][4204.497,1082.696,1242.153,702.135,2444.856,1958.862,-571.422,1701.929][4201.033,1071.744,1227.982,678.063,2392.888,1909.577,-619.054,1684.159][4182.704,1046.531,1209.296,685.662,2442.464,1914.650,-632.286,1699.448][4074.030,932.269,1105.383,584.409,2318.658,1781.903,-771.359,1584.314][4172.579,1050.063,1203.507,627.726,2400.600,1920.529,-650.972,1660.243][4273.363,1148.991,1298.815,722.319,2527.938,2090.357,-500.836,1770.392][4209.258,1076.326,1232.989,686.064,2474.249,1997.978,-550.456,1740.016][4186.526,1042.374,1202.412,662.930,2445.638,1945.518,-615.992,1702.734][4128.345,1008.801,1174.517,605.688,2401.292,1861.029,-722.073,1597.881][4143.320,1021.251,1184.844,603.564,2437.972,1896.814,-700.973,1605.168][4223.451,1096.800,1246.065,673.167,2511.621,2030.567,-561.632,1732.238][4193.433,1065.463,1214.795,641.249,2467.945,2008.595,-591.293,1714.803][4180.313,1051.538,1200.020,604.928,2449.550,1984.790,-599.943,1677.945][4126.154,988.573,1140.520,528.820,2345.972,1828.507,-715.725,1585.320][4118.733,993.602,1151.651,557.140,2371.990,1867.958,-707.477,1607.292][4247.032,1129.054,1280.755,695.005,2534.375,2060.585,-533.603,1774.192][4214.042,1096.778,1248.770,642.680,2461.285,2024.755,-567.108,1717.910][4182.861,1054.466,1197.517,555.530,2405.674,1960.002,-614.405,1658.008][4128.702,992.932,1141.369,531.189,2430.596,1884.118,-697.084,1612.589][4181.005,1049.168,1196.757,599.340,2478.741,1921.021,-633.873,1692.563][4211.717,1099.147,1249.083,636.488,2499.059,1989.037,-570.864,1723.744][4213.281,1090.944,1227.804,567.623,2456.121,1996.100,-599.250,1680.806][4187.063,1058.601,1200.825,552.513,2460.010,2010.897,-601.620,1667.239][4081.048,943.557,1105.942,498.779,2367.452,1832.508,-739.731,1582.682][4161.537,1044.810,1186.833,532.352,2402.768,1940.713,-673.100,1652.420][4291.758,1170.673,1301.140,627.279,2518.617,2111.771,-475.332,1781.434][4223.608,1105.137,1241.393,565.700,2468.459,1974.464,-549.987,1711.965][4179.150,1051.359,1194.477,551.842,2464.593,1930.945,-605.129,1690.999][4131.966,999.972,1148.634,499.964,2389.647,1849.048,-694.603,1639.568][4151.457,1043.290,1179.345,485.592,2402.879,1891.494,-650.480,1632.415][4228.235,1122.527,1258.895,561.498,2502.121,2006.024,-559.174,1697.548][4215.673,1099.773,1237.862,561.208,2502.032,1999.945,-579.044,1719.207][4170.701,1047.135,1191.683,518.851,2454.646,1974']
INDEX_b'4.411786079406738'___FLEX_[b'211,372,408,364,375\n209,372,407,365,375\n209,372,407,364,376\n210,371,408,364,376\n210,371,408,364,375\n209,372,407,364,375\n209,372,407,365,376\n209,372,407,365,375\n210,372,408,365,375\n209,372,407,366,376\n209,373,408,366,375\n211,372,407,364,375\n209,372,408,364,376\n210,372,407,365,376\n209,372,408,364,376\n210,372,407,365,375\n210,372,407,365,376\n210,372,407,364,376\n209,372,408,365,375\n210,372,407,365,376\n209,372,408,365,375\n210,372,407,365,376\n210,370,407,365,377\n210,369,407,366,376\n209,369,407,364,376\n210,369,407,364,373\n210,368,408,365,374\n210,369,407,365,376\n210,370,408,365,375\n211,370,408,365,376\n211,372,407,364,376\n213,372,407,365,376\n210,371,407,365,375\n211,371,408,364,376\n211,371,408,364,376\n211,371,408,365,376\n211,371,407,365,376\n210,371,408,365,376\n211,371,407,365,376\n212,371,407,366,376\n211,371,408,365,377\n211,371,408,364,376\n212,372,408,365,375\n211,371,407,365,376\n210,371,408,365,376\n211,371,407,365,376\n212,372,408,365,376\n214,372,407,365,376\n213,371,407,365,376\n215,372,407,365,376\n', b'215,372,407,365,376\n215,371,407,365,376\n213,371,408,365,376\n216,372,408,365,376\n215,372,405,365,377\n215,372,408,365,376\n215,372,408,365,376\n217,372,408,365,376\n216,372,407,365,377\n216,372,407,365,377\n217,372,407,365,376\n217,373,408,365,376\n219,373,408,364,376\n219,373,408,365,376\n218,372,407,365,376\n218,372,407,365,377\n220,372,408,365,376\n219,372,408,364,378\n221,372,408,365,376\n220,372,408,365,376\n221,373,408,365,377\n222,373,408,365,377\n221,373,408,365,377\n223,372,407,365,377\n223,373,408,365,377\n224,373,408,365,377\n224,373,408,365,377\n225,373,407,365,377\n224,373,408,365,377\n224,373,407,365,376\n225,373,409,365,377\n226,372,408,366,377\n226,373,408,364,377\n226,373,408,365,377\n227,373,408,364,377\n227,373,408,364,377\n227,373,407,365,377\n227,373,407,364,377\n228,374,407,365,377\n228,374,408,363,377\n228,374,408,365,377\n229,373,408,365,377\n229,373,407,365,377\n230,373,408,365,376\n229,373,408,364,378\n230,374,408,364,377\n231,373,407,364,376\n230,374,408,364,376\n231,374,408,364,376\n232,374,408,364,377\n', b'231,374,408,365,377\n234,374,407,364,377\n233,376,408,363,377\n234,375,408,363,377\n234,374,408,365,378\n236,375,408,364,376\n236,375,408,365,377\n236,375,407,364,378\n233,375,408,363,377\n235,373,408,362,377\n236,376,408,363,377\n236,376,408,363,377\n237,375,408,363,377\n237,375,408,364,377\n238,375,405,363,377\n238,375,407,363,376\n239,376,407,364,377\n239,375,407,365,376\n239,377,407,365,376\n240,375,408,365,377\n240,376,407,365,377\n239,376,407,365,377\n240,377,407,365,377\n241,374,407,365,377\n240,376,408,364,377\n243,376,408,364,376\n242,376,407,364,377\n242,377,408,364,377\n244,376,407,363,378\n244,376,408,362,377\n245,377,407,362,377\n245,377,408,363,377\n246,377,408,363,377\n246,376,407,363,377\n247,377,408,363,378\n248,376,408,364,377\n249,377,407,365,377\n250,376,407,364,377\n249,377,408,364,379\n251,376,407,364,377\n251,377,408,364,378\n253,377,408,364,377\n254,377,407,365,377\n254,378,408,365,377\n254,377,407,365,378\n254,377,407,364,377\n255,377,408,361,377\n256,377,408,362,377\n255,377,407,361,378\n257,377,407,364,377\n', b'257,378,407,363,377\n258,378,407,365,378\n258,377,408,365,377\n259,378,409,364,377\n259,377,408,364,378\n260,378,407,364,377\n261,378,407,363,377\n261,377,408,363,378\n262,378,407,363,378\n263,379,408,363,378\n262,378,407,363,378\n265,379,407,362,377\n263,378,407,364,378\n265,378,408,364,378\n265,379,408,365,378\n266,378,407,364,378\n266,378,408,364,377\n266,379,407,364,378\n267,379,408,364,378\n267,378,407,364,378\n267,378,407,363,378\n269,378,407,363,378\n268,379,407,364,378\n268,378,406,364,377\n269,379,407,363,378\n270,379,406,362,378\n269,379,407,362,378\n270,378,408,363,378\n270,379,407,363,378\n270,379,407,364,378\n271,379,408,364,378\n272,378,406,363,378\n272,379,407,363,378\n273,379,407,363,378\n273,379,407,362,378\n273,378,407,362,377\n273,379,407,362,378\n273,379,407,362,378\n274,380,407,363,378\n273,380,407,361,379\n274,379,407,361,377\n274,379,407,363,378\n275,379,407,364,378\n275,380,407,365,379\n275,379,407,365,378\n275,379,408,365,378\n275,379,407,365,379\n275,380,407,365,378\n275,380,407,365,378\n275,380,407,365,379\n', b'280,380,407,365,378\n280,380,407,364,378\n278,381,407,365,378\n281,380,407,365,378\n281,379,407,364,378\n281,380,407,365,378\n281,380,407,364,378\n282,378,408,365,378\n282,380,407,364,379\n282,380,407,365,378\n283,380,407,364,379\n282,379,408,364,378\n283,380,407,365,378\n283,380,407,364,378\n283,380,407,362,378\n283,381,407,364,378\n283,380,407,363,378\n283,380,408,362,379\n283,380,407,363,379\n284,380,407,363,378\n283,380,407,363,379\n283,380,407,363,378\n284,380,407,363,379\n284,380,407,363,379\n283,381,407,363,378\n284,382,408,362,377\n283,380,408,363,378\n284,381,407,364,378\n284,380,407,363,378\n284,380,407,363,379\n283,381,407,364,379\n285,380,408,365,378\n284,381,407,364,379\n285,381,407,365,378\n284,380,407,365,379\n285,380,407,366,378\n285,380,408,364,379\n285,381,407,365,379\n284,381,407,364,378\n285,380,407,365,378\n285,381,407,364,379\n285,380,407,365,379\n283,380,407,364,379\n283,381,407,365,379\n281,381,407,365,378\n283,380,407,365,379\n283,381,407,365,379\n284,380,407,365,378\n284,381,407,364,378\n284,380,407,365,379\n']___EMG_[b'.888,-623.412,1684.919][4066.564,941.366,1085.043,386.395,2293.691,1793.035,-771.292,1539.342][4136.280,1022.190,1154.937,439.592,2344.944,1841.359,-696.726,1595.557][4276.291,1166.068,1291.506,592.411,2598.927,2072.588,-485.010,1787.871][4217.394,1106.992,1239.047,536.732,2501.987,1996.279,-569.880,1733.244][4203.960,1087.591,1216.874,500.925,2459.094,1993.083,-588.432,1692.094][4135.899,1001.984,1131.401,393.905,2355.047,1883.045,-705.980,1586.326][4077.785,966.020,1100.667,378.884,2308.443,1810.402,-741.117,1562.543][4247.792,1136.318,1264.170,561.051,2551.742,2026.767,-525.758,1775.600][4242.875,1130.015,1255.922,542.499,2541.393,2041.474,-538.074,1734.048][4220.479,1112.200,1233.660,488.654,2479.255,1968.406,-595.249,1670.145][4208.498,1088.664,1208.939,478.640,2459.340,1955.263,-604.816,1676.403][4145.757,1023.755,1157.664,449.918,2401.047,1886.107,-671.111,1641.065][4187.018,1091.637,1218.237,488.743,2450.176,1965.232,-598.401,1685.187][4245.155,1140.855,1256.235,501.797,2496.980,2017.737,-558.883,1709.394][4230.425,1113.832,1229.100,482.217,2506.927,2034.925,-546.388,1714.826][4184.157,1062.848,1184.598,466.950,2484.687,2001.375,-560.939,1708.076][4163.325,1050.554,1176.059,449.538,2420.023,1911.275,-625.603,1664.333][4185.722,1081.802,1202.524,450.008,2432.071,1935.415,-624.262,1651.123][4191.913,1077.198,1202.613,461.452,2429.635,1939.662,-633.001,1650.475][4158.453,1051.203,1183.234,458.457,2413.027,1893.483,-663.489,1651.347][4174.144,1073.465,1189.806,464.089,2422.661,1928.955,-627.793,1676.090][4236.974,1132.138,1241.438,482.485,2494.298,2022.587,-537.470,1722.515][4225.061,1111.217,1217.902,450.678,2486.296,2003.968,-567.243,1701.236][4166.812,1042.619,1159.229,420.526,2411.619,1892.500,-663.690,1646.742][4124.321,1028.337,1154.132,419.341,2379.142,1848.132,-688.076,1620.077][4224.100,1130.015,1243.204,499.897,2479.434,1999.051,-556.245,1706.846][4233.711,1132.094,1240.946,491.805,2488.911,2009.601,-558.548,1688.495][4219.205,1102.522,1217.142,477.612,2514.325,1994.804,-572.808,1695.112][4254.229,1113.631,1199.149,459.865,2474.830,1978.643,-577.256,1722.336][4229.017,1126.662,1215.108,474.192,2474.897,1985.707,-581.414,1693.949][4217.238,1141.414,1239.695,489.928,2464.079,1970.217,-585.347,1669.161][4213.482,1110.345,1210.503,493.594,2474.494,1969.256,-572.138,1687.870][4198.708,1096.577,1204.491,493.974,2479.680,1974.732,-583.090,1700.185][4247.569,1101.181,1173.265,448.510,2473.131,1985.684,-586.063,1715.072][4251.995,1091.279,1196.757,441.313,2456.770,1974.195,-600.502,1683.757][4145.042,1041.234,1145.773,392.206,2362.535,1930.297,-652.112,1596.786][4225.485,1115.821,1194.209,498.198,2465.979,1984.321,-591.718,1690.954][4219.674,1122.192,1224.674,539.772,2479.233,2030.790,-556.782,1700.610][4192.226,1091.615,1202.725,498.556,2498.769,2000.816,-573.546,1649.358][4201.413,1106.098,1197.070,480.026,2407.305,1914.628,-611.164,1643.278][4199.065,1117.386,1196.422,506.781,2429.746,1953.162,-581.615,1691.267][4187.465,1079.857,1178.674,488.475,2481.446,1961.365,-583.716,1674.011][4177.898,1075.544,1179.658,467.844,2431.400,1916.684,-620.954,1622.267][4198.686,1102.142,1199.417,508.659,2451.562,1958.549,-595.920,1646.899][4186.638,1095.079,1190.767,508.949,2451.942,1960.449,-590.980,1675.822][4221.038,1118.168,1215.264,540.420,2481.401,1967.110,-544.310,1723.789][4230.090,1126.885,1222.685,532.597,2460.435,1959.264,-557.654,1697.861][4215.137,1114.927,1204.513,503.920,2449.259,1958.125,-592.634,1663.864][4186.348,1084.574,1179.412,506.848,2467.878,1970.060,-605.218,1666.010][4161.515,1058.355,1154.177,484.608,2483.748,1984.008,-596.613,1669.943][4178.323,1068.682,1152.411,455.260,2413.899,1959.421,-588.901,1663.059][4220.188,1121.074,1203.664,525.713,2396.576,1930.475,-597.149,1672.134][4234.516,1126.371,1214.370,554.659,2460.122,1941.025,-582.017,1702.689][4243.099,1142.487,1198.344,548.422,2478.294,1972.720,-558.749,1732.417][4164.309,1099.013,1173.779,525.177,2427.913,1937.807,-604.816,1663.037][4203.156,1126.885,1206.324,516.348,2443.671,1947.530,-605.196,1650.743][4222.646,1103.036,1177.669,517.041,2440.16', b'2,1938.053,-598.602,1681.879][4133.441,1027.420,1126.684,519.857,2450.623,1943.216,-607.140,1669.988][4177.898,1094.386,1178.250,566.036,2457.418,1949.787,-592.187,1688.607][4237.623,1139.425,1229.301,611.477,2476.350,1973.726,-559.062,1716.301][4192.673,1109.272,1193.002,586.711,2410.635,1942.232,-598.714,1677.588][4173.250,1073.979,1165.666,579.313,2370.156,1914.717,-612.684,1683.399][4199.177,1102.589,1198.545,621.960,2482.966,1954.146,-583.202,1709.394][4211.046,1106.769,1187.235,596.412,2476.595,1955.845,-594.266,1688.786][4200.384,1098.678,1166.001,581.548,2442.084,1941.204,-603.631,1682.863][4198.127,1105.540,1201.339,656.001,2480.217,1977.526,-553.742,1729.623][4201.792,1110.524,1198.277,659.891,2502.904,1994.714,-539.437,1748.152][4195.892,1099.080,1182.005,629.760,2441.771,1932.822,-594.959,1692.765][4194.975,1091.615,1179.457,634.164,2392.106,1911.342,-622.764,1672.201][4224.994,1103.416,1186.609,675.224,2449.818,1930.990,-603.810,1712.099][4199.758,1102.701,1181.647,699.207,2462.626,1949.653,-577.927,1717.486][4162.208,1088.664,1170.181,674.777,2464.168,1947.597,-589.483,1673.408][4154.675,1076.214,1167.856,669.837,2476.082,1985.327,-618.406,1636.528][4163.862,1080.103,1155.384,693.105,2431.668,1948.826,-610.270,1675.978][4188.650,1107.060,1182.474,757.702,2427.154,1888.007,-599.183,1719.251][4205.704,1123.577,1213.163,761.524,2447.538,1914.986,-592.142,1708.746][4198.082,1105.875,1208.246,741.832,2437.659,1926.072,-604.995,1676.470][4195.937,1104.757,1191.482,770.912,2435.290,1928.374,-594.825,1699.761][4226.223,1117.565,1186.811,780.813,2446.600,1929.358,-582.553,1734.004][4178.703,1084.752,1174.271,758.261,2439.536,1931.571,-593.148,1701.258][4187.979,1109.272,1206.793,796.795,2445.750,1936.130,-595.719,1681.678][4209.973,1123.198,1212.001,813.022,2461.463,1956.158,-556.760,1721.218][4196.048,1102.366,1192.823,812.218,2463.743,1955.576,-544.868,1748.085][4176.222,1085.356,1174.115,782.803,2436.027,1930.386,-584.185,1699.828][4183.106,1097.605,1184.262,779.338,2413.966,1914.740,-614.740,1660.600][4186.437,1100.265,1182.474,791.565,2442.375,1937.136,-605.844,1673.274][4172.333,1089.379,1184.598,810.631,2486.520,1962.684,-596.635,1690.261][4175.552,1092.173,1187.168,801.332,2444.789,1937.673,-587.873,1692.273][4199.893,1111.597,1200.713,787.988,2415.642,1936.846,-570.685,1693.838][4189.387,1097.471,1177.244,759.401,2424.382,1941.942,-579.670,1682.170][4164.331,1080.014,1163.341,774.130,2429.098,1917.109,-609.666,1672.402][4180.648,1101.203,1178.719,818.275,2469.667,1926.407,-603.989,1682.371][4193.478,1123.823,1208.000,799.388,2417.095,1929.134,-600.077,1664.266][4201.591,1148.723,1228.295,795.856,2406.992,1919.300,-599.586,1664.266][4194.953,1128.517,1209.207,812.978,2467.655,1931.191,-585.213,1696.006][4182.279,1079.924,1184.732,809.200,2474.360,1942.769,-583.626,1693.793][4214.488,1116.984,1206.234,807.971,2460.972,1935.661,-587.136,1679.197][4194.841,1118.660,1204.401,785.463,2445.571,1946.680,-574.484,1672.380][4171.148,1092.196,1178.339,773.616,2445.415,1942.992,-569.098,1674.906][4195.892,1118.437,1205.608,825.673,2468.437,1943.797,-568.539,1701.571][4184.738,1122.862,1193.672,787.407,2436.988,1940.198,-573.590,1681.298][4193.075,1109.272,1194.611,772.409,2432.943,1937.047,-579.894,1669.094][4184.425,1110.524,1205.497,796.683,2450.533,1931.772,-590.444,1664.266][4179.955,1107.954,1194.678,801.824,2460.145,1943.641,-564.292,1693.994][4185.096,1112.402,1202.725,786.089,2456.345,1942.434,-572.451,1681.566][4182.727,1104.958,1189.761,753.969,2447.203,1944.356,-598.602,1640.976][4181.765,1106.881,1191.817,776.187,2444.096,1931.951,-594.758,1654.230][4184.626,1108.535,1196.355,799.835,2442.800,1936.130,-574.708,1689.367][4185.051,1111.172,1196.019,784.680,2425.768,1954.816,-576.206,1674.883][4198.015,1127.690,1208.134,767.782,2449.282,1948.670,-584.520,1652.979][4188.918,1115.441,1194.902,755.355,2435.960,1958.549,-565.097,1660.980][4165.896,1089.804,1171.701,758.663,2423.331,1933.605,-584.811,1667.530][4183.911,1114.234,1200.199,791.498,2477.758,1916.282,-587.896,1671.598][4208.141,1140.967,1224.272,787.139']
