INDEX_b'0.4011878967285156'___FLEX_[]___EMG_[b'[-171.036,3753.282,3789.425,6845.803,-187500.016,-187500.016,-187500.016,-187500.016][-182.167,3747.180,3766.515,6868.065,-187500.016,-187500.016,-187500.016,-187500.016][-171.706,3756.859,3741.391,6798.909,-187500.016,-187500.016,-187500.016,-187500.016][-171.371,3750.533,3730.864,6724.835,-187500.016,-187500.016,-187500.016,-187500.016][-161.603,3756.255,3777.937,6829.218,-187500.016,-187500.016,-187500.016,-187500.016][-172.667,3741.168,3759.474,6903.984,-187500.016,-187500.016,-187500.016,-187500.016][-203.423,3727.444,3700.957,6781.608,-187500.016,-187500.016,-187500.016,-187500.016][-182.189,3753.327,3724.605,6734.379,-187500.016,-187500.016,-187500.016,-187500.016][-176.400,3748.857,3781.714,6823.786,-187500.016,-187500.016,-187500.016,-187500.016][-175.707,3756.948,3793.471,6851.659,-187500.016,-187500.016,-187500.016,-187500.016][-164.598,3761.687,3765.732,6842.472,-187500.016,-187500.016,-187500.016,-187500.016][-161.044,3772.706,3750.600,6753.400,-187500.016,-187500.016,-187500.016,-187500.016][-168.957,3751.047,3742.263,6814.197,-187500.016,-187500.016,-187500.016,-187500.016][-168.934,3756.836,3774.561,6869.048,-187500.016,-187500.016,-187500.016,-187500.016][-145.465,3769.041,3774.964,6862.500,-187500.016,-187500.016,-187500.016,-187500.016][-166.051,3741.995,3735.267,6817.014,-187500.016,-187500.016,-187500.016,-187500.016][-168.934,3745.504,3744.208,6779.127,-187500.016,-187500.016,-187500.016,-187500.016][-185.139,3741.034,3756.725,6864.623,-187500.016,-187500.016,-187500.016,-187500.016][-226.289,3691.681,3719.755,6812.700,-187500.016,-187500.016,-187500.016,-187500.016][-166.543,3756.725,3752.791,6773.428,-187500.016,-187500.016,-187500.016,-187500.016][-144.146,3780.417,3748.924,6785.855,-187500.016,-187500.016,-187500.016,-187500.016][-168.175,3754.109,3780.887,6874.234,-187500.016,-187500.016,-187500.016,-187500.016][-171.036,3751.807,3766.537,6902.397,-187500.016,-187500.016,-187500.016,-187500.016][-199.221,3717.989,3704.936,6801.211,-187500.016,-187500.016,-187500.016,-187500.016][-185.318,3732.361,3745.035,6707.713,-187500.016,-187500.016,-187500.016,-187500.016][-116.475,3792.241,3805.898,6852.933,-187500.016,-187500.016,-187500.016,-187500.016][-168.934,3737.055,3747.136,6892.809,-187500.016,-187500.016,-187500.016,-187500.016][-186.995,3721.565,3668.279,6809.257,-187500.016,-187500.016,-187500.016,-187500.016][-146.359,3765.621,3757.842,6778.412,-187500.016,-187500.016,-187500.016,-187500.016][-173.338,3742.017,3764.548,6819.159,-187500.016,-187500.016,-187500.016,-187500.016][-165.872,3746.354,3769.666,6919.317,-187500.016,-187500.016,-187500.016,-187500.016][-183.262,3721.386,3770.359,6868.199,-187500.016,-187500.016,-187500.016,-187500.016][-171.348,3754.042,3738.396,6737.218,-187500.016,-187500.016,-187500.016,-187500.016][-145.443,3778.965,3756.054,6793.634,-187500.016,-187500.016,-187500.016,-187500.016][-167.124,3754.177,3756.479,6881.476,-187500.016,-187500.016,-187500.016,-187500.016][-183.307,3737.949,3742.442,6831.050,-187500.016,-187500.016,-187500.016,-187500.016][-207.514,3712.021,3723.756,6723.717,-187500.016,-187500.016,-187500.016,-187500.016][-135.094,3770.672,3743.112,6833.375,-187500.016,-187500.016,-187500.016,-187500.016][-130.288,3790.945,3797.986,6898.061,-187500.016,-187500.016,-187500.016,-187500.016][-167.549,3756.657,3772.639,6863.416,-187500.016,-187500.016,-187500.016,-187500.016][-160.620,3757.417,3737.592,6784.358,-187500.016,-187500.016,-187500.016,-187500.016][-174.902,3734.663,3731.422,6814.979,-187500.016,-187500.016,-187500.016,-187500.016][-195.064,3703.751,3722.973,6907.314,-187500.016,-187500.016,-187500.016,-187500.016][-190.638,3725.969,3736.653,6854.363,-187500.016,-187500.016,-187500.016,-187500.016][-170.924,3751.427,3750.936,6758.005,-187500.016,-187500.016,-187500.016,-187500.016][-137.217,3776.819,3757.820,6773.450,-187500.016,-187500.016,-187500.016,-187500.016][-154.495,3755.003,3779.635,6867.729,-187500.016,-187500.016,-187500.016,-187500.016][-168.577,3731.802,3759.630,6888.517,-187500.016,-187500.016,-187500.016,-187500.016][-168.353,3747.6', b'72,3723.420,6832.615,-187500.016,-187500.016,-187500.016,-187500.016][-119.001,3787.972,3766.403,6759.793,-187500.016,-187500.016,-187500.016,-187500.016][-162.452,3762.625,3813.498,6816.365,-187500.016,-187500.016,-187500.016,-187500.016][-224.970,3701.046,3781.356,6831.833,-187500.016,-187500.016,-187500.016,-187500.016][-172.712,3731.378,3724.784,6840.818,-187500.016,-187500.016,-187500.016,-187500.016][-117.615,3771.186,3720.515,6828.189,-187500.016,-187500.016,-187500.016,-187500.016][-146.873,3747.382,3718.861,6826.356,-187500.016,-187500.016,-187500.016,-187500.016][-155.099,3746.130,3783.569,6901.011,-187500.016,-187500.016,-187500.016,-187500.016][-136.122,3767.521,3765.688,6848.083,-187500.016,-187500.016,-187500.016,-187500.016][-158.362,3756.233,3759.474,6760.375,-187500.016,-187500.016,-187500.016,-187500.016][-161.961,3753.953,3763.296,6795.086,-187500.016,-187500.016,-187500.016,-187500.016][-156.038,3752.925,3766.649,6894.306,-187500.016,-187500.016,-187500.016,-187500.016][-159.010,3742.621,3752.567,6852.955,-187500.016,-187500.016,-187500.016,-187500.016][-158.720,3758.692,3751.941,6785.163,-187500.016,-187500.016,-187500.016,-187500.016][-147.678,3747.672,3745.348,6834.292,-187500.016,-187500.016,-187500.016,-187500.016][-206.262,3708.244,3717.676,6874.145,-187500.016,-187500.016,-187500.016,-187500.016][-179.641,3735.289,3759.250,6858.409,-187500.016,-187500.016,-187500.016,-187500.016][-125.818,3778.965,3779.836,6803.401,-187500.016,-187500.016,-187500.016,-187500.016][-138.402,3775.679,3770.493,6800.205,-187500.016,-187500.016,-187500.016,-187500.016][-166.409,3747.963,3778.965,6897.726,-187500.016,-187500.016,-187500.016,-187500.016][-178.926,3731.042,3757.775,6890.193,-187500.016,-187500.016,-187500.016,-187500.016][-190.705,3722.638,3744.163,6796.472,-187500.016,-187500.016,-187500.016,-187500.016][-216.052,3695.682,3709.160,6726.288,-187500.016,-187500.016,-187500.016,-187500.016][-182.882,3726.907,3794.588,6870.658,-187500.016,-187500.016,-187500.016,-187500.016][-152.640,3770.158,3799.215,6887.086,-187500.016,-187500.016,-187500.016,-187500.016][-111.222,3789.381,3743.939,6826.334,-187500.016,-187500.016,-187500.016,-187500.016][-128.992,3775.299,3745.951,6793.187,-187500.016,-187500.016,-187500.016,-187500.016][-163.123,3752.880,3758.312,6874.145,-187500.016,-187500.016,-187500.016,-187500.016][-209.883,3691.681,3711.172,6924.503,-187500.016,-187500.016,-187500.016,-187500.016][-170.812,3739.760,3755.585,6790.862,-187500.016,-187500.016,-187500.016,-187500.016][-94.078,3794.901,3763.117,6759.749,-187500.016,-187500.016,-187500.016,-187500.016][-119.627,3778.026,3764.794,6859.146,-187500.016,-187500.016,-187500.016,-187500.016][-166.409,3738.016,3775.679,6930.314,-187500.016,-187500.016,-187500.016,-187500.016][-168.689,3737.905,3754.355,6838.918,-187500.016,-187500.016,-187500.016,-187500.016][-161.804,3742.129,3747.672,6781.810,-187500.016,-187500.016,-187500.016,-187500.016][-167.884,3716.357,3733.658,6849.200,-187500.016,-187500.016,-187500.016,-187500.016][-190.526,3705.003,3716.067,6931.633,-187500.016,-187500.016,-187500.016,-187500.016][-166.342,3746.510,3763.095,6837.644,-187500.016,-187500.016,-187500.016,-187500.016][-151.522,3752.232,3768.638,6739.565,-187500.016,-187500.016,-187500.016,-187500.016][-160.731,3745.795,3759.049,6791.823,-187500.016,-187500.016,-187500.016,-187500.016][-168.577,3739.916,3793.493,6902.643,-187500.016,-187500.016,-187500.016,-187500.016][-157.826,3733.523,3749.796,6866.411,-187500.016,-187500.016,-187500.016,-187500.016][-175.394,3737.010,3741.816,6770.567,-187500.016,-187500.016,-187500.016,-187500.016][-188.738,3715.106,3707.707,6773.696,-187500.016,-187500.016,-187500.016,-187500.016][-166.431,3748.790,3776.953,6884.426,-187500.016,-187500.016,-187500.016,-187500.016][-171.237,3744.118,3763.430,6878.503,-187500.016,-187500.016,-187500.016,-187500.016][-165.045,3736.988,3742.375,6834.135,-187500.016,-187500.016,-187500.016,-187500.016][-158.250,3739.961,3723.175,6828.167,-187500.016,-187500.016,-187500.016,-187500.016][-175.640,3725.432,3703.527,6836.']
INDEX_b'0.8013124465942383'___FLEX_[]___EMG_[b'884,-187500.016,-187500.016,-187500.016,-187500.016][-208.385,3693.536,3706.344,6851.994,-187500.016,-187500.016,-187500.016,-187500.016][-131.272,3782.451,3816.203,6859.236,-187500.016,-187500.016,-187500.016,-187500.016][-125.013,3784.664,3775.679,6789.700,-187500.016,-187500.016,-187500.016,-187500.016][-155.434,3747.695,3770.247,6891.020,-187500.016,-187500.016,-187500.016,-187500.016][-169.784,3733.769,3778.115,6946.542,-187500.016,-187500.016,-187500.016,-187500.016][-159.703,3743.001,3757.686,6826.178,-187500.016,-187500.016,-187500.016,-187500.016][-164.308,3732.808,3732.138,6754.317,-187500.016,-187500.016,-187500.016,-187500.016][-171.371,3712.826,3740.184,6816.433,-187500.016,-187500.016,-187500.016,-187500.016][-150.740,3732.540,3762.983,6915.496,-187500.016,-187500.016,-187500.016,-187500.016][-176.311,3733.166,3750.377,6888.830,-187500.016,-187500.016,-187500.016,-187500.016][-146.940,3758.021,3768.191,6820.031,-187500.016,-187500.016,-187500.016,-187500.016][-161.715,3752.612,3756.970,6794.438,-187500.016,-187500.016,-187500.016,-187500.016][-188.805,3729.701,3759.362,6880.515,-187500.016,-187500.016,-187500.016,-187500.016][-217.326,3689.781,3737.636,6836.303,-187500.016,-187500.016,-187500.016,-187500.016][-164.486,3730.126,3745.996,6800.272,-187500.016,-187500.016,-187500.016,-187500.016][-130.847,3778.138,3783.904,6840.282,-187500.016,-187500.016,-187500.016,-187500.016][-167.571,3739.536,3735.960,6902.621,-187500.016,-187500.016,-187500.016,-187500.016][-163.525,3741.190,3760.256,6916.926,-187500.016,-187500.016,-187500.016,-187500.016][-146.180,3745.795,3752.254,6828.972,-187500.016,-187500.016,-187500.016,-187500.016][-153.467,3728.785,3715.039,6822.110,-187500.016,-187500.016,-187500.016,-187500.016][-153.601,3759.764,3785.603,6883.957,-187500.016,-187500.016,-187500.016,-187500.016][-182.234,3730.618,3779.344,6901.861,-187500.016,-187500.016,-187500.016,-187500.016][-160.508,3730.059,3760.882,6820.076,-187500.016,-187500.016,-187500.016,-187500.016][-145.890,3747.314,3753.327,6788.627,-187500.016,-187500.016,-187500.016,-187500.016][-143.409,3751.785,3762.693,6910.176,-187500.016,-187500.016,-187500.016,-187500.016][-149.824,3742.218,3760.524,6926.336,-187500.016,-187500.016,-187500.016,-187500.016][-142.448,3750.824,3751.383,6836.236,-187500.016,-187500.016,-187500.016,-187500.016][-144.750,3740.430,3733.948,6814.019,-187500.016,-187500.016,-187500.016,-187500.016][-190.303,3688.731,3688.239,6848.753,-187500.016,-187500.016,-187500.016,-187500.016][-167.191,3740.520,3817.007,6942.474,-187500.016,-187500.016,-187500.016,-187500.016][-143.968,3758.066,3782.787,6868.937,-187500.016,-187500.016,-187500.016,-187500.016][-144.660,3743.604,3729.098,6797.255,-187500.016,-187500.016,-187500.016,-187500.016][-177.071,3712.289,3746.398,6882.080,-187500.016,-187500.016,-187500.016,-187500.016][-189.342,3697.180,3789.939,6961.205,-187500.016,-187500.016,-187500.016,-187500.016][-178.412,3724.561,3740.274,6796.629,-187500.016,-187500.016,-187500.016,-187500.016][-130.691,3770.829,3745.795,6780.357,-187500.016,-187500.016,-187500.016,-187500.016][-124.142,3760.636,3749.684,6858.186,-187500.016,-187500.016,-187500.016,-187500.016][-145.555,3757.462,3810.101,6921.105,-187500.016,-187500.016,-187500.016,-187500.016][-157.334,3740.631,3820.159,6888.003,-187500.016,-187500.016,-187500.016,-187500.016][-152.126,3731.892,3735.714,6785.587,-187500.016,-187500.016,-187500.016,-187500.016][-175.327,3701.918,3697.336,6794.841,-187500.016,-187500.016,-187500.016,-187500.016][-167.236,3718.458,3789.135,6925.777,-187500.016,-187500.016,-187500.016,-187500.016][-144.705,3743.448,3775.098,6921.285,-187500.016,-187500.016,-187500.016,-187500.016][-117.458,3755.339,3736.273,6815.248,-187500.016,-187500.016,-187500.016,-187500.016][-121.348,3757.038,3767.588,6827.854,-187500.016,-187500.016,-187500.016,-187500.016][-141.822,3744.230,3775.768,6918.736,-187500.016,-187500.016,-187500.016,-187500.016][-179.060,3705.986,3740.184,6934.315,-187500.016,-187500.016,-187500.016,-187500.016][-170.812,3713.541,3740.587,6845.847,-187500.016,', b'-187500.016,-187500.016,-187500.016][-124.276,3762.737,3773.891,6798.015,-187500.016,-187500.016,-187500.016,-187500.016][-165.001,3725.387,3753.484,6846.138,-187500.016,-187500.016,-187500.016,-187500.016][-186.235,3700.510,3742.710,6887.444,-187500.016,-187500.016,-187500.016,-187500.016][-123.203,3754.266,3764.883,6891.132,-187500.016,-187500.016,-187500.016,-187500.016][-122.599,3767.006,3791.772,6844.461,-187500.016,-187500.016,-187500.016,-187500.016][-145.420,3749.907,3772.818,6852.106,-187500.016,-187500.016,-187500.016,-187500.016][-150.539,3737.167,3767.364,6908.187,-187500.016,-187500.016,-187500.016,-187500.016][-144.616,3736.630,3751.315,6859.326,-187500.016,-187500.016,-187500.016,-187500.016][-136.949,3741.347,3743.582,6792.226,-187500.016,-187500.016,-187500.016,-187500.016][-149.891,3716.335,3765.665,6868.981,-187500.016,-187500.016,-187500.016,-187500.016][-206.061,3667.385,3763.855,6929.510,-187500.016,-187500.016,-187500.016,-187500.016][-151.701,3732.808,3764.615,6905.415,-187500.016,-187500.016,-187500.016,-187500.016][-111.826,3766.783,3775.522,6840.237,-187500.016,-187500.016,-187500.016,-187500.016][-139.721,3731.422,3760.413,6833.889,-187500.016,-187500.016,-187500.016,-187500.016][-166.520,3712.334,3820.181,6937.378,-187500.016,-187500.016,-187500.016,-187500.016][-162.698,3717.385,3776.260,6896.497,-187500.016,-187500.016,-187500.016,-187500.016][-166.990,3719.688,3742.151,6749.288,-187500.016,-187500.016,-187500.016,-187500.016][-133.127,3742.800,3722.929,6777.786,-187500.016,-187500.016,-187500.016,-187500.016][-106.439,3751.517,3791.973,6951.638,-187500.016,-187500.016,-187500.016,-187500.016][-139.028,3735.356,3806.211,6916.032,-187500.016,-187500.016,-187500.016,-187500.016][-153.489,3740.430,3758.312,6828.659,-187500.016,-187500.016,-187500.016,-187500.016][-142.269,3730.461,3724.672,6852.061,-187500.016,-187500.016,-187500.016,-187500.016][-140.235,3737.279,3780.574,6929.219,-187500.016,-187500.016,-187500.016,-187500.016][-130.914,3747.113,3789.313,6934.047,-187500.016,-187500.016,-187500.016,-187500.016][-140.056,3748.432,3762.670,6823.920,-187500.016,-187500.016,-187500.016,-187500.016][-148.170,3742.419,3780.529,6781.921,-187500.016,-187500.016,-187500.016,-187500.016][-154.696,3735.312,3766.805,6847.501,-187500.016,-187500.016,-187500.016,-187500.016][-152.484,3729.969,3765.755,6907.203,-187500.016,-187500.016,-187500.016,-187500.016][-153.691,3721.923,3731.892,6831.855,-187500.016,-187500.016,-187500.016,-187500.016][-159.279,3720.939,3766.559,6825.172,-187500.016,-187500.016,-187500.016,-187500.016][-195.891,3686.205,3751.427,6848.775,-187500.016,-187500.016,-187500.016,-187500.016][-182.323,3700.398,3778.205,6882.080,-187500.016,-187500.016,-187500.016,-187500.016][-131.249,3744.319,3811.844,6878.436,-187500.016,-187500.016,-187500.016,-187500.016][-119.805,3751.718,3737.971,6825.194,-187500.016,-187500.016,-187500.016,-187500.016][-107.378,3756.769,3772.505,6851.659,-187500.016,-187500.016,-187500.016,-187500.016][-157.692,3727.287,3816.761,6944.284,-187500.016,-187500.016,-187500.016,-187500.016][-193.119,3688.083,3735.781,6931.611,-187500.016,-187500.016,-187500.016,-187500.016][-146.270,3730.037,3738.374,6759.793,-187500.016,-187500.016,-187500.016,-187500.016][-92.871,3782.049,3782.138,6839.566,-187500.016,-187500.016,-187500.016,-187500.016][-139.497,3729.590,3811.688,6947.615,-187500.016,-187500.016,-187500.016,-187500.016][-155.926,3729.143,3771.477,6909.930,-187500.016,-187500.016,-187500.016,-187500.016][-157.759,3729.075,3737.458,6784.581,-187500.016,-187500.016,-187500.016,-187500.016][-154.249,3731.020,3806.524,6832.437,-187500.016,-187500.016,-187500.016,-187500.016][-185.832,3691.145,3774.606,6933.310,-187500.016,-187500.016,-187500.016,-187500.016][-167.951,3704.265,3759.072,6866.545,-187500.016,-187500.016,-187500.016,-187500.016][-113.994,3745.839,3777.311,6834.068,-187500.016,-187500.016,-187500.016,-187500.016][-129.506,3767.833,3775.299,6812.990,-187500.016,-187500.016,-187500.016,-187500.016][-140.972,3744.431,3791.034,6895.468,-187500.016,-187500.016,-1875']
INDEX_b'1.2022781372070312'___FLEX_[b'\xb0\xff']___EMG_[b'00.016,-187500.016][-144.660,3732.048,3799.662,6943.994,-187500.016,-187500.016,-187500.016,-187500.016][-150.181,3738.933,3766.470,6838.985,-187500.016,-187500.016,-187500.016,-187500.016][-136.033,3753.573,3764.414,6784.447,-187500.016,-187500.016,-187500.016,-187500.016][-152.037,3729.679,3761.754,6909.773,-187500.016,-187500.016,-187500.016,-187500.016][-181.876,3691.837,3737.837,6927.610,-187500.016,-187500.016,-187500.016,-187500.016][-127.606,3745.415,3782.943,6854.050,-187500.016,-187500.016,-187500.016,-187500.016][-127.941,3758.669,3801.048,6796.964,-187500.016,-187500.016,-187500.016,-187500.016][-144.593,3740.006,3788.621,6865.919,-187500.016,-187500.016,-187500.016,-187500.016][-154.875,3713.675,3796.198,6928.929,-187500.016,-187500.016,-187500.016,-187500.016][-178.546,3676.996,3753.059,6886.282,-187500.016,-187500.016,-187500.016,-187500.016][-155.993,3728.584,3721.252,6797.970,-187500.016,-187500.016,-187500.016,-187500.016][-149.734,3743.157,3801.115,6819.562,-187500.016,-187500.016,-187500.016,-187500.016][-162.721,3732.428,3848.076,6926.850,-187500.016,-187500.016,-187500.016,-187500.016][-137.486,3744.833,3773.444,6890.171,-187500.016,-187500.016,-187500.016,-187500.016][-135.720,3739.022,3752.053,6805.458,-187500.016,-187500.016,-187500.016,-187500.016][-143.632,3729.053,3779.948,6869.048,-187500.016,-187500.016,-187500.016,-187500.016][-150.360,3721.386,3817.231,6996.945,-187500.016,-187500.016,-187500.016,-187500.016][-212.654,3643.021,3703.572,7001.997,-187500.016,-187500.016,-187500.016,-187500.016][-168.532,3710.814,3721.811,6749.579,-187500.016,-187500.016,-187500.016,-187500.016][-101.298,3795.594,3833.726,6767.371,-187500.016,-187500.016,-187500.016,-187500.016][-118.084,3766.760,3826.529,6909.460,-187500.016,-187500.016,-187500.016,-187500.016][-150.584,3728.740,3787.458,6923.296,-187500.016,-187500.016,-187500.016,-187500.016][-150.763,3727.958,3748.611,6796.405,-187500.016,-187500.016,-187500.016,-187500.016][-135.787,3752.590,3773.757,6793.500,-187500.016,-187500.016,-187500.016,-187500.016][-191.219,3688.015,3791.996,6928.683,-187500.016,-187500.016,-187500.016,-187500.016][-180.200,3698.409,3797.226,6909.013,-187500.016,-187500.016,-187500.016,-187500.016][-102.997,3788.039,3791.236,6812.007,-187500.016,-187500.016,-187500.016,-187500.016][-113.636,3762.111,3774.785,6809.883,-187500.016,-187500.016,-187500.016,-187500.016][-127.964,3749.036,3796.958,6903.873,-187500.016,-187500.016,-187500.016,-187500.016][-123.069,3750.802,3807.798,6956.757,-187500.016,-187500.016,-187500.016,-187500.016][-136.413,3742.464,3780.462,6860.845,-187500.016,-187500.016,-187500.016,-187500.016][-163.749,3717.743,3767.141,6802.977,-187500.016,-187500.016,-187500.016,-187500.016][-183.620,3699.012,3763.765,6894.865,-187500.016,-187500.016,-187500.016,-187500.016][-176.556,3709.384,3748.387,6917.842,-187500.016,-187500.016,-187500.016,-187500.016][-142.358,3740.073,3783.904,6875.598,-187500.016,-187500.016,-187500.016,-187500.016][-127.405,3749.661,3802.233,6839.634,-187500.016,-187500.016,-187500.016,-187500.016][-153.042,3723.711,3830.262,6896.250,-187500.016,-187500.016,-187500.016,-187500.016][-183.754,3703.460,3802.568,6929.890,-187500.016,-187500.016,-187500.016,-187500.016][-154.719,3720.716,3755.428,6890.685,-187500.016,-187500.016,-187500.016,-187500.016][-128.925,3753.797,3760.480,6801.479,-187500.016,-187500.016,-187500.016,-187500.016][-148.907,3741.861,3798.679,6861.181,-187500.016,-187500.016,-187500.016,-187500.016][-150.919,3731.422,3802.836,6925.308,-187500.016,-187500.016,-187500.016,-187500.016][-154.383,3725.209,3767.364,6864.131,-187500.016,-187500.016,-187500.016,-187500.016][-147.499,3736.787,3779.479,6804.497,-187500.016,-187500.016,-187500.016,-187500.016][-195.824,3668.167,3765.352,6789.789,-187500.016,-187500.016,-187500.016,-187500.016][-159.189,3696.263,3773.734,6893.144,-187500.016,-187500.016,-187500.016,-187500.016][-108.384,3783.949,3832.050,6931.052,-187500.016,-187500.016,-187500.016,-187500.016][-137.955,3757.976,3782.988,6811.761,-187500.016,-187500.016,-187500.016,-187500.0', b'16][-133.708,3754.780,3790.587,6811.023,-187500.016,-187500.016,-187500.016,-187500.016][-150.740,3724.672,3793.292,6918.625,-187500.016,-187500.016,-187500.016,-187500.016][-157.781,3710.680,3781.244,6956.265,-187500.016,-187500.016,-187500.016,-187500.016][-157.960,3702.589,3739.961,6859.102,-187500.016,-187500.016,-187500.016,-187500.016][-147.857,3733.546,3778.048,6771.327,-187500.016,-187500.016,-187500.016,-187500.016][-146.985,3728.852,3822.707,6857.292,-187500.016,-187500.016,-187500.016,-187500.016][-143.185,3733.188,3827.177,6914.020,-187500.016,-187500.016,-187500.016,-187500.016][-149.354,3733.300,3786.855,6855.257,-187500.016,-187500.016,-187500.016,-187500.016][-128.053,3747.851,3781.803,6796.360,-187500.016,-187500.016,-187500.016,-187500.016][-132.680,3721.923,3779.568,6874.435,-187500.016,-187500.016,-187500.016,-187500.016][-146.605,3721.096,3779.166,6980.427,-187500.016,-187500.016,-187500.016,-187500.016][-186.659,3717.475,3796.958,6789.253,-187500.016,-187500.016,-187500.016,-187500.016][-136.234,3742.777,3755.741,6765.180,-187500.016,-187500.016,-187500.016,-187500.016][-121.683,3760.211,3818.974,6869.093,-187500.016,-187500.016,-187500.016,-187500.016][-154.831,3738.486,3837.660,6914.177,-187500.016,-187500.016,-187500.016,-187500.016][-151.053,3733.278,3811.486,6875.195,-187500.016,-187500.016,-187500.016,-187500.016][-153.020,3712.245,3727.109,6805.793,-187500.016,-187500.016,-187500.016,-187500.016][-155.166,3722.594,3762.156,6853.335,-187500.016,-187500.016,-187500.016,-187500.016][-123.650,3762.089,3857.978,6918.960,-187500.016,-187500.016,-187500.016,-187500.016][-146.270,3732.674,3808.044,6898.173,-187500.016,-187500.016,-187500.016,-187500.016][-121.281,3753.886,3789.246,6818.109,-187500.016,-187500.016,-187500.016,-187500.016][-154.272,3723.264,3811.509,6791.913,-187500.016,-187500.016,-187500.016,-187500.016][-229.061,3646.531,3751.964,6882.907,-187500.016,-187500.016,-187500.016,-187500.016][-141.062,3714.569,3736.988,6923.251,-187500.016,-187500.016,-187500.016,-187500.016][-127.763,3747.739,3766.671,6792.292,-187500.016,-187500.016,-187500.016,-187500.016][-93.184,3787.056,3837.861,6813.907,-187500.016,-187500.016,-187500.016,-187500.016][-110.105,3765.218,3819.779,6906.555,-187500.016,-187500.016,-187500.016,-187500.016][-147.834,3731.512,3799.215,6929.800,-187500.016,-187500.016,-187500.016,-187500.016][-149.623,3730.640,3783.368,6849.066,-187500.016,-187500.016,-187500.016,-187500.016][-158.004,3717.788,3766.336,6840.952,-187500.016,-187500.016,-187500.016,-187500.016][-151.120,3726.550,3805.608,6885.052,-187500.016,-187500.016,-187500.016,-187500.016][-164.844,3714.502,3828.250,6901.503,-187500.016,-187500.016,-187500.016,-187500.016][-137.597,3734.753,3817.521,6861.382,-187500.016,-187500.016,-187500.016,-187500.016][-119.314,3753.417,3780.976,6789.409,-187500.016,-187500.016,-187500.016,-187500.016][-133.775,3731.802,3765.598,6856.487,-187500.016,-187500.016,-187500.016,-187500.016][-187.956,3703.907,3810.771,6911.785,-187500.016,-187500.016,-187500.016,-187500.016][-184.871,3698.677,3815.063,6849.424,-187500.016,-187500.016,-187500.016,-187500.016][-126.489,3747.538,3752.701,6804.005,-187500.016,-187500.016,-187500.016,-187500.016][-138.044,3741.212,3771.231,6845.289,-187500.016,-187500.016,-187500.016,-187500.016][-149.488,3725.320,3806.032,6943.994,-187500.016,-187500.016,-187500.016,-187500.016][-141.867,3729.075,3791.549,6906.979,-187500.016,-187500.016,-187500.016,-187500.016][-152.126,3717.564,3751.718,6786.951,-187500.016,-187500.016,-187500.016,-187500.016][-136.949,3743.850,3780.820,6823.607,-187500.016,-187500.016,-187500.016,-187500.016][-140.592,3744.901,3804.848,6917.149,-187500.016,-187500.016,-187500.016,-187500.016][-158.809,3714.055,3765.777,6876.268,-187500.016,-187500.016,-187500.016,-187500.016][-121.661,3740.900,3776.864,6801.479,-187500.016,-187500.016,-187500.016,-187500.016][-125.863,3756.859,3816.247,6815.226,-187500.016,-187500.016,-187500.016,-187500.016][-146.605,3727.399,3824.406,6899.581,-187500.016,-187500.016,-187500.016,-187500.016][-141.844,3721']
INDEX_b'1.602372407913208'___FLEX_[b'301,400,397,392,408\n302,400,397,392,407\n302,400,397,392,407\n301,400,397,393,407\n302,400,397,392,408\n301,400,397,392,407\n301,400,397,392,407\n302,400,397,392,408\n301,400,397,392,407\n302,400,397,393,407\n301,399,397,393,407\n302,400,397,392,408\n302,400,397,392,408\n302,399,397,392,408\n301,400,397,392,407\n301,399,397,393,407\n301,400,397,392,407\n302,399,397,392,407\n301,400,396,392,407\n302,399,397,393,407\n301,399,397,392,407\n301,400,397,392,407\n301,400,397,393,407\n302,400,397,392,409\n301,399,397,392,407\n301,399,397,392,407\n301,399,397,393,407\n301,399,397,392,407\n302,400,397,392,407\n301,400,397,392,407\n301,399,397,392,407\n301,400,397,392,408\n301,400,397,392,407\n302,400,397,392,408\n301,400,397,392,407\n301,400,397,393,407\n302,400,397,392,408\n302,400,397,393,407\n302,399,397,393,407\n302,400,397,393,407\n301,399,397,392,407\n301,400,397,392,407\n302,400,397,392,407\n302,399,396,393,407\n302,399,397,392,407\n302,400,397,392,407\n301,400,397,392,407\n302,400,397,392,407\n301,400,397,392,407\n301,400,396,392,407\n']___EMG_[b'.945,3829.614,6942.585,-187500.016,-187500.016,-187500.016,-187500.016][-147.007,3722.214,3751.025,6841.064,-187500.016,-187500.016,-187500.016,-187500.016][-170.343,3704.042,3737.949,6774.791,-187500.016,-187500.016,-187500.016,-187500.016][-162.318,3707.439,3775.165,6879.643,-187500.016,-187500.016,-187500.016,-187500.016][-129.662,3751.830,3850.736,6933.689,-187500.016,-187500.016,-187500.016,-187500.016][-118.598,3758.736,3801.450,6832.906,-187500.016,-187500.016,-187500.016,-187500.016][-131.786,3748.231,3771.432,6786.414,-187500.016,-187500.016,-187500.016,-187500.016][-142.001,3729.768,3808.201,6889.433,-187500.016,-187500.016,-187500.016,-187500.016][-142.939,3712.692,3827.133,6964.312,-187500.016,-187500.016,-187500.016,-187500.016][-178.702,3697.738,3800.512,6900.363,-187500.016,-187500.016,-187500.016,-187500.016][-147.343,3739.648,3759.519,6742.046,-187500.016,-187500.016,-187500.016,-187500.016][-139.296,3750.667,3823.221,6814.309,-187500.016,-187500.016,-187500.016,-187500.016][-129.171,3747.583,3821.835,6932.081,-187500.016,-187500.016,-187500.016,-187500.016][-130.132,3743.224,3793.605,6874.078,-187500.016,-187500.016,-187500.016,-187500.016][-133.149,3737.368,3783.189,6788.180,-187500.016,-187500.016,-187500.016,-187500.016][-131.004,3735.177,3815.152,6864.914,-187500.016,-187500.016,-187500.016,-187500.016][-168.443,3686.048,3756.345,6935.031,-187500.016,-187500.016,-187500.016,-187500.016][-141.531,3714.524,3753.193,6875.017,-187500.016,-187500.016,-187500.016,-187500.016][-124.052,3764.883,3839.784,6768.533,-187500.016,-187500.016,-187500.016,-187500.016][-136.815,3746.175,3802.792,6820.434,-187500.016,-187500.016,-187500.016,-187500.016][-124.097,3746.443,3817.119,6952.555,-187500.016,-187500.016,-187500.016,-187500.016][-114.217,3739.000,3818.013,6920.771,-187500.016,-187500.016,-187500.016,-187500.016][-112.273,3744.252,3788.151,6823.004,-187500.016,-187500.016,-187500.016,-187500.016][-171.639,3705.472,3753.819,6825.954,-187500.016,-187500.016,-187500.016,-187500.016][-154.026,3724.538,3822.148,6869.384,-187500.016,-187500.016,-187500.016,-187500.016][-152.081,3731.355,3832.966,6895.491,-187500.016,-187500.016,-187500.016,-187500.016][-115.000,3731.713,3781.893,6841.802,-187500.016,-187500.016,-187500.016,-187500.016][-126.533,3731.914,3779.859,6773.673,-187500.016,-187500.016,-187500.016,-187500.016][-162.989,3723.331,3823.735,6887.198,-187500.016,-187500.016,-187500.016,-187500.016][-153.311,3725.387,3807.798,6934.293,-187500.016,-187500.016,-187500.016,-187500.016][-163.928,3706.322,3792.487,6854.028,-187500.016,-187500.016,-187500.016,-187500.016][-161.514,3718.861,3773.489,6771.707,-187500.016,-187500.016,-187500.016,-187500.016][-136.860,3737.748,3810.212,6876.134,-187500.016,-187500.016,-187500.016,-187500.016][-149.287,3727.287,3798.209,6876.827,-187500.016,-187500.016,-187500.016,-187500.016][-133.574,3743.783,3787.525,6833.509,-187500.016,-187500.016,-187500.016,-187500.016][-98.124,3774.628,3807.351,6796.919,-187500.016,-187500.016,-187500.016,-187500.016][-124.566,3745.124,3821.701,6868.937,-187500.016,-187500.016,-187500.016,-187500.016][-142.291,3731.087,3817.767,6948.106,-187500.016,-187500.016,-187500.016,-187500.016][-135.161,3726.572,3781.244,6859.661,-187500.016,-187500.016,-187500.016,-187500.016][-115.268,3750.220,3790.811,6758.497,-187500.016,-187500.016,-187500.016,-187500.016][-113.457,3741.637,3806.815,6842.763,-187500.016,-187500.016,-187500.016,-187500.016][-148.505,3730.484,3808.603,6909.214,-187500.016,-187500.016,-187500.016,-187500.016][-152.819,3718.794,3790.319,6876.447,-187500.016,-187500.016,-187500.016,-187500.016][-151.098,3723.264,3782.653,6780.044,-187500.016,-187500.016,-187500.016,-187500.016][-150.360,3713.876,3754.445,6787.845,-187500.016,-187500.016,-187500.016,-187500.016][-97.208,3767.096,3843.069,6932.483,-187500.016,-187500.016,-187500.016,-187500.016][-123.985,3752.813,3829.882,6914.557,-187500.016,-187500.016,-187500.016,-187500.016][-151.031,3711.038,3766.090,6836.258,-187500.016,-187500.016,-187500.016,-187500.016][-160.553,3708.355,3777.311,6830', b'.961,-187500.016,-187500.016,-187500.016,-187500.016][-136.122,3741.078,3853.284,6872.804,-187500.016,-187500.016,-187500.016,-187500.016][-146.225,3728.003,3831.424,6867.461,-187500.016,-187500.016,-187500.016,-187500.016][-108.317,3743.649,3782.094,6824.613,-187500.016,-187500.016,-187500.016,-187500.016][-130.780,3745.660,3795.125,6796.629,-187500.016,-187500.016,-187500.016,-187500.016][-145.935,3726.237,3814.415,6868.892,-187500.016,-187500.016,-187500.016,-187500.016][-160.038,3701.806,3787.637,6923.520,-187500.016,-187500.016,-187500.016,-187500.016][-125.706,3736.362,3833.749,6841.377,-187500.016,-187500.016,-187500.016,-187500.016][-89.318,3778.115,3812.895,6791.398,-187500.016,-187500.016,-187500.016,-187500.016][-114.977,3752.992,3820.852,6846.563,-187500.016,-187500.016,-187500.016,-187500.016][-164.777,3695.436,3790.051,6924.637,-187500.016,-187500.016,-187500.016,-187500.016][-128.970,3707.663,3759.474,6889.522,-187500.016,-187500.016,-187500.016,-187500.016][-131.696,3731.311,3807.351,6796.830,-187500.016,-187500.016,-187500.016,-187500.016][-152.707,3726.326,3818.192,6795.109,-187500.016,-187500.016,-187500.016,-187500.016][-124.857,3742.911,3845.930,6904.565,-187500.016,-187500.016,-187500.016,-187500.016][-114.240,3763.207,3817.767,6849.759,-187500.016,-187500.016,-187500.016,-187500.016][-119.157,3756.389,3789.045,6775.216,-187500.016,-187500.016,-187500.016,-187500.016][-140.436,3732.853,3801.786,6819.741,-187500.016,-187500.016,-187500.016,-187500.016][-152.573,3711.194,3820.785,6925.106,-187500.016,-187500.016,-187500.016,-187500.016][-158.139,3696.822,3787.704,6848.194,-187500.016,-187500.016,-187500.016,-187500.016][-124.209,3732.540,3797.360,6753.646,-187500.016,-187500.016,-187500.016,-187500.016][-82.947,3772.371,3818.371,6842.271,-187500.016,-187500.016,-187500.016,-187500.016][-125.393,3746.711,3829.368,6927.297,-187500.016,-187500.016,-187500.016,-187500.016][-174.925,3702.231,3777.400,6890.082,-187500.016,-187500.016,-187500.016,-187500.016][-186.212,3682.539,3744.677,6762.922,-187500.016,-187500.016,-187500.016,-187500.016][-125.796,3741.212,3834.196,6871.306,-187500.016,-187500.016,-187500.016,-187500.016][-118.218,3738.977,3859.654,6936.998,-187500.016,-187500.016,-187500.016,-187500.016][-157.647,3705.204,3803.149,6881.923,-187500.016,-187500.016,-187500.016,-187500.016][-146.180,3719.800,3779.859,6820.836,-187500.016,-187500.016,-187500.016,-187500.016][-115.536,3753.506,3777.869,6760.911,-187500.016,-187500.016,-187500.016,-187500.016][-128.433,3746.085,3845.975,6847.345,-187500.016,-187500.016,-187500.016,-187500.016][-136.703,3733.211,3818.192,6907.158,-187500.016,-187500.016,-187500.016,-187500.016][-122.041,3741.436,3803.887,6830.089,-187500.016,-187500.016,-187500.016,-187500.016][-120.521,3737.390,3793.337,6806.665,-187500.016,-187500.016,-187500.016,-187500.016][-111.222,3750.913,3825.367,6863.349,-187500.016,-187500.016,-187500.016,-187500.016][-126.667,3739.693,3853.038,6918.290,-187500.016,-187500.016,-187500.016,-187500.016][-141.710,3718.078,3807.150,6863.349,-187500.016,-187500.016,-187500.016,-187500.016][-125.349,3732.272,3766.336,6817.908,-187500.016,-187500.016,-187500.016,-187500.016][-157.647,3713.049,3772.617,6831.408,-187500.016,-187500.016,-187500.016,-187500.016][-166.230,3701.158,3793.180,6900.296,-187500.016,-187500.016,-187500.016,-187500.016][-162.922,3705.986,3779.613,6785.609,-187500.016,-187500.016,-187500.016,-187500.016][-84.557,3780.999,3839.873,6797.255,-187500.016,-187500.016,-187500.016,-187500.016][-111.088,3758.848,3830.485,6844.797,-187500.016,-187500.016,-187500.016,-187500.016][-136.122,3729.925,3812.112,6938.629,-187500.016,-187500.016,-187500.016,-187500.016][-170.857,3688.552,3799.305,6909.527,-187500.016,-187500.016,-187500.016,-187500.016][-174.992,3687.680,3761.664,6762.140,-187500.016,-187500.016,-187500.016,-187500.016][-103.310,3777.624,3845.305,6797.813,-187500.016,-187500.016,-187500.016,-187500.016][-125.259,3748.097,3834.509,6905.303,-187500.016,-187500.016,-187500.016,-187500.016][-145.666,3724.717,3814.191,6873.586,-187500.016,-1']
INDEX_b'2.003302574157715'___FLEX_[b'301,400,397,392,407\n302,400,397,392,407\n302,399,396,392,407\n302,399,397,392,406\n302,399,397,392,406\n301,400,397,392,406\n302,400,397,392,405\n302,400,397,392,405\n302,399,397,392,404\n302,399,398,392,405\n301,400,397,392,404\n302,399,396,393,403\n302,400,397,392,403\n302,400,397,392,403\n301,400,397,392,402\n301,399,397,392,402\n302,399,396,392,402\n302,399,397,392,399\n302,400,396,392,401\n301,400,397,392,401\n302,400,397,392,401\n301,400,397,392,401\n302,400,397,392,400\n301,400,398,392,399\n301,399,397,392,399\n302,400,397,392,399\n301,399,397,391,399\n303,400,396,392,398\n301,400,396,392,397\n302,401,397,392,396\n302,400,397,391,396\n302,399,397,392,395\n301,400,397,392,394\n302,399,397,392,393\n301,399,397,391,392\n302,399,397,392,392\n302,399,397,391,391\n301,399,397,392,389\n302,400,398,391,388\n302,400,397,392,388\n301,400,397,392,386\n302,400,397,392,385\n302,399,397,392,383\n301,400,397,392,383\n302,400,396,392,382\n301,399,397,392,381\n302,400,397,392,380\n302,400,396,390,379\n302,400,396,392,378\n302,400,398,392,377\n', b'302,400,396,391,374\n302,400,397,392,373\n302,400,397,392,372\n302,400,397,392,371\n301,400,397,392,370\n302,400,397,392,368\n302,399,398,392,366\n301,400,397,393,365\n301,400,397,392,364\n301,400,397,392,362\n301,398,398,392,361\n301,400,397,392,359\n301,399,395,391,358\n301,400,396,392,356\n301,400,397,392,355\n301,400,397,391,354\n301,399,397,392,353\n301,400,396,392,351\n300,399,397,392,349\n301,400,397,392,347\n301,400,397,391,346\n301,400,397,392,344\n301,399,397,392,343\n301,401,397,392,341\n302,399,397,391,339\n301,399,396,391,339\n300,400,397,392,337\n300,399,398,392,335\n301,399,397,392,333\n300,400,397,391,333\n301,399,397,391,331\n301,399,397,391,329\n300,400,397,391,327\n300,400,396,391,325\n301,400,397,391,324\n301,400,396,391,323\n301,399,396,391,322\n301,399,396,391,320\n300,400,397,391,320\n300,400,397,390,320\n301,400,397,390,317\n301,399,397,390,317\n300,400,396,390,316\n300,399,397,390,315\n300,399,396,389,314\n301,399,397,389,313\n300,399,398,389,313\n300,400,397,389,312\n300,400,397,389,312\n300,399,397,389,311\n', b'299,399,396,388,311\n300,400,396,388,311\n299,400,397,389,309\n300,399,397,388,310\n299,399,397,388,309\n300,399,397,388,307\n299,399,397,388,307\n299,400,397,388,307\n299,399,397,387,306\n299,399,397,387,306\n299,399,397,387,305\n299,400,397,386,306\n299,400,397,387,304\n300,400,397,386,304\n299,400,397,385,304\n298,401,397,386,303\n299,399,397,385,302\n299,400,397,385,302\n299,399,397,385,302\n299,400,397,385,302\n298,400,397,385,301\n298,400,397,384,301\n298,399,397,384,300\n299,400,396,384,299\n298,399,397,384,301\n298,399,397,383,299\n298,400,396,383,299\n299,400,397,384,298\n298,399,397,382,298\n299,400,397,383,297\n298,399,396,382,297\n299,400,397,383,296\n298,399,396,381,296\n299,400,398,382,295\n297,399,397,381,295\n296,400,397,381,295\n298,399,397,380,295\n298,399,397,380,295\n298,400,397,380,294\n297,399,397,380,294\n297,399,397,380,293\n298,400,397,379,293\n297,400,397,378,292\n298,400,397,378,291\n297,399,397,378,290\n298,399,397,377,290\n297,399,397,377,290\n297,400,397,376,289\n297,400,396,376,288\n298,400,397,375,288\n', b'297,399,397,375,288\n298,399,397,374,286\n297,399,397,374,288\n297,400,397,374,288\n297,399,397,373,287\n298,400,397,372,286\n297,400,397,372,285\n297,400,397,372,284\n296,400,397,371,285\n297,399,397,370,284\n298,400,397,370,283\n297,400,397,370,283\n297,399,397,369,283\n297,400,397,369,283\n297,400,397,368,282\n297,399,397,368,281\n297,400,397,367,281\n297,400,397,367,281\n297,399,396,367,281\n297,399,397,367,278\n297,399,396,366,279\n297,400,397,366,280\n296,400,397,365,279\n297,399,397,365,278\n297,400,397,365,278\n297,400,397,364,278\n297,399,398,364,278\n296,400,397,364,277\n296,400,397,363,278\n297,400,397,363,277\n297,399,397,363,277\n297,400,397,362,276\n297,399,397,362,276\n296,400,397,362,276\n296,399,397,361,276\n296,399,397,361,275\n296,399,397,360,275\n295,400,397,361,274\n295,399,396,361,275\n295,400,397,361,274\n295,400,397,360,274\n297,399,397,360,275\n296,399,396,359,272\n295,399,395,359,273\n294,400,397,359,273\n296,399,397,359,273\n296,400,397,358,274\n295,399,397,358,273\n296,400,398,358,273\n296,400,397,358,272\n', b'296,400,397,358,272\n296,399,397,357,273\n295,399,397,357,272\n296,399,397,357,272\n296,399,397,357,272\n296,399,397,357,273\n295,399,397,356,271\n296,400,397,356,272\n296,400,397,356,272\n297,399,397,356,272\n296,399,397,356,272\n295,399,397,356,272\n295,399,398,356,272\n295,399,397,356,272\n296,400,398,356,272\n296,399,397,356,271\n296,399,397,356,271\n296,399,397,356,271\n296,400,397,356,271\n296,399,398,355,272\n296,399,398,355,271\n296,399,398,355,272\n295,400,397,356,272\n296,399,398,355,272\n295,399,397,356,272\n295,399,397,356,272\n295,400,397,355,271\n294,400,397,355,271\n295,400,398,355,272\n296,400,397,356,272\n294,400,397,355,271\n295,399,398,355,271\n294,400,398,355,272\n294,400,397,355,273\n294,400,397,355,272\n294,400,397,355,272\n294,399,398,355,272\n294,400,398,355,272\n293,399,398,355,271\n294,400,397,355,271\n293,400,398,355,272\n293,399,397,355,272\n293,400,398,355,271\n293,400,398,355,272\n293,400,398,355,271\n294,399,397,355,271\n293,399,398,354,272\n294,400,398,354,272\n293,400,398,355,272\n293,400,398,354,272\n']___EMG_[b'87500.016,-187500.016,-187500.016][-131.831,3736.966,3797.583,6793.410,-187500.016,-187500.016,-187500.016,-187500.016][-117.570,3751.092,3790.923,6805.771,-187500.016,-187500.016,-187500.016,-187500.016][-151.567,3705.785,3818.416,6969.855,-187500.016,-187500.016,-187500.016,-187500.016][-167.951,3691.793,3794.030,6906.242,-187500.016,-187500.016,-187500.016,-187500.016][-89.988,3771.387,3823.981,6802.753,-187500.016,-187500.016,-187500.016,-187500.016][-107.780,3754.288,3799.953,6767.058,-187500.016,-187500.016,-187500.016,-187500.016][-124.320,3747.136,3828.854,6928.213,-187500.016,-187500.016,-187500.016,-187500.016][-163.414,3701.180,3763.967,6890.171,-187500.016,-187500.016,-187500.016,-187500.016][-196.226,3663.987,3709.741,6762.632,-187500.016,-187500.016,-187500.016,-187500.016][-188.895,3652.767,3684.931,6777.875,-187500.016,-187500.016,-187500.016,-187500.016][-110.820,3748.589,3850.334,6830.469,-187500.016,-187500.016,-187500.016,-187500.016][-113.145,3757.328,3871.322,6901.056,-187500.016,-187500.016,-187500.016,-187500.016][-115.715,3756.725,3839.985,6833.532,-187500.016,-187500.016,-187500.016,-187500.016][-105.746,3752.701,3811.397,6791.242,-187500.016,-187500.016,-187500.016,-187500.016][-149.220,3704.064,3801.987,6866.724,-187500.016,-187500.016,-187500.016,-187500.016][-184.692,3672.369,3760.569,6897.704,-187500.016,-187500.016,-187500.016,-187500.016][-159.167,3696.151,3852.703,6820.858,-187500.016,-187500.016,-187500.016,-187500.016][-170.253,3701.851,3853.240,6698.192,-187500.016,-187500.016,-187500.016,-187500.016][-102.505,3764.346,3787.369,6834.247,-187500.016,-187500.016,-187500.016,-187500.016][-97.767,3749.416,3810.257,6964.803,-187500.016,-187500.016,-187500.016,-187500.016][-141.755,3718.727,3779.076,6882.839,-187500.016,-187500.016,-187500.016,-187500.016][-164.174,3709.227,3729.947,6742.001,-187500.016,-187500.016,-187500.016,-187500.016][-177.942,3699.862,3750.466,6776.624,-187500.016,-187500.016,-187500.016,-187500.016][-134.625,3736.407,3875.859,6934.159,-187500.016,-187500.016,-187500.016,-187500.016][-137.888,3720.649,3822.908,6897.592,-187500.016,-187500.016,-187500.016,-187500.016][-142.694,3711.686,3730.305,6753.087,-187500.016,-187500.016,-187500.016,-187500.016][-106.484,3755.831,3824.942,6792.829,-187500.016,-187500.016,-187500.016,-187500.016][-221.416,3652.052,3831.379,6815.695,-187500.016,-187500.016,-187500.016,-187500.016][-179.373,3675.744,3768.124,6905.035,-187500.016,-187500.016,-187500.016,-187500.016][-74.230,3777.422,3833.726,6824.144,-187500.016,-187500.016,-187500.016,-187500.016][-45.106,3806.413,3878.117,6827.765,-187500.016,-187500.016,-187500.016,-187500.016][-124.320,3734.283,3858.649,6876.782,-187500.016,-187500.016,-187500.016,-187500.016][-188.895,3673.286,3805.563,6904.923,-187500.016,-187500.016,-187500.016,-187500.016][-272.825,3588.081,3680.103,6807.514,-187500.016,-187500.016,-187500.016,-187500.016][-150.003,3714.458,3696.822,6742.806,-187500.016,-187500.016,-187500.016,-187500.016][-67.547,3792.979,3889.963,6882.013,-187500.016,-187500.016,-187500.016,-187500.016][-94.078,3739.804,3876.105,6943.078,-187500.016,-187500.016,-187500.016,-187500.016][-110.619,3757.842,3888.287,6816.410,-187500.016,-187500.016,-187500.016,-187500.016][-146.672,3727.131,3789.246,6718.710,-187500.016,-187500.016,-187500.016,-187500.016][-157.133,3710.166,3772.505,6816.522,-187500.016,-187500.016,-187500.016,-187500.016][-222.802,3621.966,3717.162,6981.701,-187500.016,-187500.016,-187500.016,-187500.016][-88.088,3766.805,3869.288,6887.869,-187500.016,-187500.016,-187500.016,-187500.016][-45.016,3812.448,3923.200,6803.491,-187500.016,-187500.016,-187500.016,-187500.016][-144.593,3693.313,3792.554,6804.027,-187500.016,-187500.016,-187500.016,-187500.016][-206.955,3652.118,3822.260,6838.494,-187500.016,-187500.016,-187500.016,-187500.016][-174.120,3680.081,3710.792,6811.448,-187500.016,-187500.016,-187500.016,-187500.016][-160.620,3695.548,3628.828,6749.288,-187500.016,-187500.016,-187500.016,-187500.016][-99.354,3738.687,3845.886,6793.008,-187500.016,-187500.016,-187500.016,-18', b'7500.016][-84.311,3737.189,3978.655,6914.914,-187500.016,-187500.016,-187500.016,-187500.016][-51.543,3779.859,3928.945,7021.890,-187500.016,-187500.016,-187500.016,-187500.016][-130.177,3742.800,3868.550,6764.286,-187500.016,-187500.016,-187500.016,-187500.016][-153.691,3713.765,3840.052,6794.282,-187500.016,-187500.016,-187500.016,-187500.016][-158.653,3693.290,3782.787,6892.473,-187500.016,-187500.016,-187500.016,-187500.016][-201.389,3632.248,3725.209,6901.838,-187500.016,-187500.016,-187500.016,-187500.016][-132.367,3728.450,3857.553,6817.371,-187500.016,-187500.016,-187500.016,-187500.016][-91.016,3766.872,3905.431,6765.023,-187500.016,-187500.016,-187500.016,-187500.016][-118.956,3727.377,3886.834,6835.454,-187500.016,-187500.016,-187500.016,-187500.016][-137.195,3684.886,3793.672,7001.080,-187500.016,-187500.016,-187500.016,-187500.016][-251.099,3586.181,3636.942,6781.273,-187500.016,-187500.016,-187500.016,-187500.016][-72.867,3789.291,3904.805,6721.549,-187500.016,-187500.016,-187500.016,-187500.016][-78.030,3779.143,3922.955,6886.863,-187500.016,-187500.016,-187500.016,-187500.016][-135.139,3713.183,3838.465,6952.264,-187500.016,-187500.016,-187500.016,-187500.016][-135.228,3707.975,3832.050,6861.851,-187500.016,-187500.016,-187500.016,-187500.016][-191.800,3650.241,3768.124,6746.673,-187500.016,-187500.016,-187500.016,-187500.016][-203.647,3632.650,3782.049,6858.744,-187500.016,-187500.016,-187500.016,-187500.016][-178.635,3673.643,3732.697,6814.376,-187500.016,-187500.016,-187500.016,-187500.016][-125.639,3698.811,3732.697,6842.450,-187500.016,-187500.016,-187500.016,-187500.016][-140.414,3677.443,3797.561,6888.808,-187500.016,-187500.016,-187500.016,-187500.016][-13.791,3836.386,4006.192,6932.237,-187500.016,-187500.016,-187500.016,-187500.016][-41.194,3788.710,3940.121,6905.549,-187500.016,-187500.016,-187500.016,-187500.016][-90.346,3704.533,3756.747,6814.890,-187500.016,-187500.016,-187500.016,-187500.016][-272.289,3555.045,3601.738,6719.180,-187500.016,-187500.016,-187500.016,-187500.016][-82.791,3775.433,3957.734,6910.869,-187500.016,-187500.016,-187500.016,-187500.016][-27.068,3818.661,3999.599,6988.161,-187500.016,-187500.016,-187500.016,-187500.016][-97.834,3737.614,3851.854,6814.734,-187500.016,-187500.016,-187500.016,-187500.016][-110.105,3740.430,3891.751,6806.866,-187500.016,-187500.016,-187500.016,-187500.016][-150.830,3715.575,3937.573,6896.161,-187500.016,-187500.016,-187500.016,-187500.016][-232.548,3602.587,3720.381,6883.420,-187500.016,-187500.016,-187500.016,-187500.016][-209.592,3605.649,3679.164,6822.803,-187500.016,-187500.016,-187500.016,-187500.016][-108.026,3746.041,3910.080,6852.553,-187500.016,-187500.016,-187500.016,-187500.016][-172.645,3671.251,3819.935,6908.611,-187500.016,-187500.016,-187500.016,-187500.016][-117.637,3729.321,3854.178,6859.817,-187500.016,-187500.016,-187500.016,-187500.016][-151.746,3686.428,3803.842,6837.979,-187500.016,-187500.016,-187500.016,-187500.016][-196.941,3631.085,3823.668,6862.455,-187500.016,-187500.016,-187500.016,-187500.016][-251.994,3580.168,3855.609,6823.853,-187500.016,-187500.016,-187500.016,-187500.016][-11.042,3825.970,3934.332,6957.226,-187500.016,-187500.016,-187500.016,-187500.016][32.857,3872.708,3966.831,6858.499,-187500.016,-187500.016,-187500.016,-187500.016][-109.948,3699.504,3744.923,6839.566,-187500.016,-187500.016,-187500.016,-187500.016][-99.957,3736.385,3910.639,6953.874,-187500.016,-187500.016,-187500.016,-187500.016][-115.938,3731.579,3899.418,6929.197,-187500.016,-187500.016,-187500.016,-187500.016][-231.206,3585.309,3651.984,6765.672,-187500.016,-187500.016,-187500.016,-187500.016][-169.672,3614.344,3663.853,6846.205,-187500.016,-187500.016,-187500.016,-187500.016][85.697,3895.574,4115.224,7008.792,-187500.016,-187500.016,-187500.016,-187500.016][-12.182,3832.676,4064.374,6923.698,-187500.016,-187500.016,-187500.016,-187500.016][-113.368,3719.129,3875.904,6811.225,-187500.016,-187500.016,-187500.016,-187500.016][-79.818,3752.947,3860.370,6852.017,-187500.016,-187500.016,-187500.016,-187500.016][-133.105,3732.004,3899.21']
INDEX_b'2.405247211456299'___FLEX_[b'294,399,398,354,272\n293,399,397,354,272\n293,400,398,354,272\n293,400,398,354,272\n293,400,398,354,272\n293,400,397,354,272\n293,400,398,354,273\n294,400,398,354,273\n293,399,398,354,273\n294,399,398,354,273\n294,400,398,354,272\n293,400,398,354,272\n293,400,398,353,273\n294,400,397,354,273\n293,400,399,354,273\n293,399,398,353,273\n294,400,398,354,272\n293,400,399,353,272\n293,400,399,353,272\n293,400,399,353,272\n293,400,399,352,272\n293,400,398,352,272\n293,399,398,352,271\n293,399,399,352,270\n293,400,398,351,270\n294,400,398,351,269\n294,400,398,350,269\n293,400,399,350,269\n293,400,399,350,269\n293,399,399,349,268\n293,400,399,349,268\n294,400,398,349,267\n293,400,399,349,268\n293,399,399,348,267\n293,399,398,348,267\n294,400,399,348,267\n293,400,399,348,267\n294,401,399,348,267\n293,400,398,348,266\n294,400,399,348,267\n293,400,398,347,267\n293,400,398,347,266\n293,400,399,347,267\n294,400,400,347,266\n293,400,399,347,266\n293,400,398,346,266\n293,400,398,347,266\n293,400,399,346,266\n293,400,399,346,266\n293,400,398,346,265\n', b'293,399,399,347,266\n293,399,398,346,265\n293,400,398,346,266\n293,399,399,346,266\n292,400,399,346,266\n293,400,397,347,266\n293,399,399,346,266\n292,400,399,346,266\n293,399,399,346,266\n293,399,399,345,267\n292,400,399,346,266\n293,400,399,347,266\n293,400,399,346,266\n293,400,398,347,267\n293,399,398,346,266\n292,400,399,347,267\n293,400,399,347,267\n293,400,399,347,267\n293,400,399,346,267\n293,400,399,346,268\n292,400,399,347,267\n293,399,399,347,268\n293,400,399,348,268\n293,400,399,347,268\n293,399,399,347,269\n293,400,399,348,269\n292,401,399,347,269\n293,400,399,348,269\n293,399,399,347,269\n293,400,399,348,269\n292,400,399,348,269\n293,401,399,348,270\n293,400,399,348,270\n292,400,399,348,270\n292,400,399,348,271\n293,400,398,348,269\n292,400,400,348,270\n293,400,399,348,271\n293,400,399,348,271\n293,400,399,349,271\n293,401,400,349,270\n293,400,399,348,270\n293,400,399,348,270\n293,401,398,348,270\n293,400,399,347,268\n293,400,400,348,270\n292,400,399,347,270\n293,400,400,347,269\n293,401,400,345,269\n293,401,400,346,268\n', b'292,400,399,345,267\n293,400,400,344,267\n293,400,399,345,266\n292,400,400,344,267\n293,400,399,343,266\n292,400,400,344,265\n292,400,399,343,265\n292,400,399,344,264\n292,400,400,343,264\n291,400,400,343,263\n292,400,400,342,262\n292,400,400,342,263\n292,400,400,341,262\n291,400,399,341,262\n292,400,400,341,262\n292,400,400,341,261\n292,401,400,340,261\n292,400,400,341,261\n292,401,399,340,261\n292,400,400,340,262\n291,401,400,340,260\n292,401,400,339,260\n292,400,400,339,260\n292,400,400,340,260\n291,400,400,338,260\n291,400,400,339,260\n292,400,400,339,260\n293,400,400,339,261\n292,401,400,339,260\n292,400,399,339,261\n292,400,399,339,261\n293,400,400,339,261\n292,400,400,339,261\n292,400,400,339,261\n292,400,400,339,261\n292,400,400,338,261\n293,400,400,340,261\n292,400,400,339,261\n293,400,400,339,260\n293,400,400,340,261\n292,400,401,340,262\n292,400,400,340,262\n292,400,400,340,262\n292,400,400,340,263\n292,400,400,341,263\n292,400,400,342,263\n292,400,400,341,263\n292,400,400,341,263\n292,400,399,341,265\n293,400,400,342,265\n', b'291,400,400,343,265\n292,400,400,342,265\n292,400,399,343,265\n292,400,400,342,266\n293,400,400,342,265\n292,400,400,343,266\n292,400,400,343,266\n292,400,400,343,267\n292,401,400,343,267\n292,401,400,343,269\n292,400,400,343,267\n292,400,400,343,267\n292,400,400,344,267\n292,400,401,343,267\n293,401,400,344,267\n292,401,400,344,267\n292,401,401,343,267\n292,401,400,344,267\n291,400,400,344,267\n292,400,400,344,267\n292,400,400,343,267\n292,400,400,343,267\n292,400,400,344,267\n292,400,400,344,267\n291,400,400,344,267\n292,400,400,344,268\n291,400,400,344,267\n292,401,400,344,268\n292,400,400,343,267\n292,400,400,344,267\n292,400,400,344,267\n292,401,401,344,267\n292,400,400,345,268\n292,400,400,343,266\n292,400,401,341,268\n292,400,401,343,267\n292,400,400,344,267\n292,400,400,344,267\n292,401,401,343,267\n292,401,401,342,267\n292,400,400,343,267\n292,401,401,344,267\n292,401,401,343,267\n291,400,400,344,267\n292,401,400,343,268\n292,400,401,344,267\n292,400,401,343,267\n291,400,400,344,268\n292,400,400,344,267\n291,400,401,344,268\n', b'291,400,400,342,267\n292,400,401,344,267\n292,400,400,344,268\n290,400,400,343,268\n291,400,400,343,268\n292,400,401,343,267\n292,400,401,344,268\n291,399,401,344,267\n292,401,401,344,267\n292,400,400,343,267\n291,400,400,344,267\n291,400,401,343,268\n292,400,401,344,267\n292,400,401,344,268\n291,400,401,344,269\n292,400,401,344,269\n291,400,401,343,269\n291,400,400,343,269\n291,399,400,343,268\n292,399,400,344,268\n291,400,401,344,268\n292,400,401,344,269\n292,400,401,343,268\n292,399,401,344,269\n292,399,400,344,269\n292,399,401,344,269\n292,400,401,344,269\n292,400,400,344,269\n291,400,401,344,269\n292,400,401,345,269\n292,400,401,345,269\n292,399,401,344,270\n293,400,400,344,269\n292,400,401,344,269\n291,399,400,344,270\n291,400,401,345,270\n291,399,401,345,270\n292,399,400,345,270\n291,399,400,345,270\n292,399,401,345,271\n291,399,401,345,271\n292,399,401,345,271\n291,399,400,345,271\n292,401,401,343,271\n292,399,400,346,272\n291,399,401,346,271\n292,399,401,346,271\n292,399,401,347,272\n291,399,401,346,271\n292,399,401,346,272\n']___EMG_[b'7,6883.420,-187500.016,-187500.016,-187500.016,-187500.016][-186.101,3642.664,3772.259,6860.443,-187500.016,-187500.016,-187500.016,-187500.016][-129.059,3683.098,3841.259,6863.215,-187500.016,-187500.016,-187500.016,-187500.016][-180.781,3692.173,3971.011,6761.470,-187500.016,-187500.016,-187500.016,-187500.016][-53.108,3804.446,4022.487,6941.133,-187500.016,-187500.016,-187500.016,-187500.016][-70.810,3764.369,3914.014,6980.114,-187500.016,-187500.016,-187500.016,-187500.016][-224.724,3609.717,3724.180,6805.123,-187500.016,-187500.016,-187500.016,-187500.016][-377.946,3459.223,3572.166,6654.762,-187500.016,-187500.016,-187500.016,-187500.016][35.629,3876.306,4022.979,7046.745,-187500.016,-187500.016,-187500.016,-187500.016][4.649,3855.184,4083.596,6983.422,-187500.016,-187500.016,-187500.016,-187500.016][-38.914,3810.995,3999.353,6892.585,-187500.016,-187500.016,-187500.016,-187500.016][-26.621,3794.723,3924.720,6892.764,-187500.016,-187500.016,-187500.016,-187500.016][-117.145,3709.205,3810.861,6882.169,-187500.016,-187500.016,-187500.016,-187500.016][-199.445,3632.292,3733.032,6933.176,-187500.016,-187500.016,-187500.016,-187500.016][-132.144,3695.727,3885.202,6914.177,-187500.016,-187500.016,-187500.016,-187500.016][-69.737,3759.250,3999.599,6845.333,-187500.016,-187500.016,-187500.016,-187500.016][-105.321,3740.788,3969.536,6799.356,-187500.016,-187500.016,-187500.016,-187500.016][-30.398,3789.783,4012.674,7004.254,-187500.016,-187500.016,-187500.016,-187500.016][-86.837,3720.403,3839.873,6974.504,-187500.016,-187500.016,-187500.016,-187500.016][-155.166,3649.727,3715.419,6842.227,-187500.016,-187500.016,-187500.016,-187500.016][-111.468,3737.346,3902.749,6849.111,-187500.016,-187500.016,-187500.016,-187500.016][-77.471,3778.518,4017.726,6863.125,-187500.016,-187500.016,-187500.016,-187500.016][-236.571,3600.955,3834.732,6752.596,-187500.016,-187500.016,-187500.016,-187500.016][-115.223,3692.642,3798.947,6845.981,-187500.016,-187500.016,-187500.016,-187500.016][45.575,3893.696,4044.235,6947.369,-187500.016,-187500.016,-187500.016,-187500.016][-143.789,3714.882,3843.896,6901.682,-187500.016,-187500.016,-187500.016,-187500.016][-340.216,3487.185,3550.642,6894.261,-187500.016,-187500.016,-187500.016,-187500.016][-119.336,3720.805,3801.897,6764.397,-187500.016,-187500.016,-187500.016,-187500.016][76.488,3922.083,4181.698,6910.288,-187500.016,-187500.016,-187500.016,-187500.016][-38.065,3793.135,4045.420,6929.465,-187500.016,-187500.016,-187500.016,-187500.016][-61.758,3745.504,3940.925,6953.605,-187500.016,-187500.016,-187500.016,-187500.016][-52.862,3780.440,3920.518,6883.465,-187500.016,-187500.016,-187500.016,-187500.016][-201.322,3635.243,3730.707,6774.277,-187500.016,-187500.016,-187500.016,-187500.016][-226.803,3623.151,3847.607,6797.031,-187500.016,-187500.016,-187500.016,-187500.016][-6.616,3850.222,4121.706,7042.833,-187500.016,-187500.016,-187500.016,-187500.016][-37.462,3803.574,4028.924,6944.553,-187500.016,-187500.016,-187500.016,-187500.016][-224.836,3626.459,3906.213,6719.851,-187500.016,-187500.016,-187500.016,-187500.016][-91.732,3738.441,3865.019,6880.269,-187500.016,-187500.016,-187500.016,-187500.016][-72.531,3747.806,3889.248,7024.058,-187500.016,-187500.016,-187500.016,-187500.016][-117.816,3704.936,3859.565,6931.388,-187500.016,-187500.016,-187500.016,-187500.016][-145.689,3665.574,3776.841,6801.814,-187500.016,-187500.016,-187500.016,-187500.016][-196.159,3627.710,3858.537,6805.346,-187500.016,-187500.016,-187500.016,-187500.016][-188.783,3656.544,3901.586,6789.812,-187500.016,-187500.016,-187500.016,-187500.016][33.952,3869.713,4048.147,7046.834,-187500.016,-187500.016,-187500.016,-187500.016][-13.366,3804.937,3935.047,6876.670,-187500.016,-187500.016,-187500.016,-187500.016][-154.540,3668.323,3745.169,6783.151,-187500.016,-187500.016,-187500.016,-187500.016][-111.490,3720.515,3923.580,6980.517,-187500.016,-187500.016,-187500.016,-187500.016][-12.003,3814.280,3999.643,7000.544,-187500.016,-187500.016,-187500.016,-187500.016][-75.325,3764.548,3892.511,6839.991,-187500.016,-187500.016,-187500.016', b',-187500.016][-208.654,3601.224,3764.123,6770.589,-187500.016,-187500.016,-187500.016,-187500.016][-130.333,3699.527,3901.609,6879.554,-187500.016,-187500.016,-187500.016,-187500.016][2.816,3836.006,3994.838,6960.914,-187500.016,-187500.016,-187500.016,-187500.016][-63.390,3763.609,3951.587,6839.209,-187500.016,-187500.016,-187500.016,-187500.016][-191.756,3610.365,3727.220,6774.054,-187500.016,-187500.016,-187500.016,-187500.016][-154.875,3656.231,3800.378,6908.768,-187500.016,-187500.016,-187500.016,-187500.016][38.266,3876.463,4146.025,7059.753,-187500.016,-187500.016,-187500.016,-187500.016][-68.575,3767.744,4014.619,6826.647,-187500.016,-187500.016,-187500.016,-187500.016][-123.024,3703.192,3847.830,6758.631,-187500.016,-187500.016,-187500.016,-187500.016][-302.866,3550.016,3617.563,6724.254,-187500.016,-187500.016,-187500.016,-187500.016][-448.689,3395.677,3470.823,6690.950,-187500.016,-187500.016,-187500.016,-187500.016][-125.863,3727.287,3963.545,6895.468,-187500.016,-187500.016,-187500.016,-187500.016][119.962,3940.858,4217.796,7061.385,-187500.016,-187500.016,-187500.016,-187500.016][19.737,3838.219,4093.118,6964.110,-187500.016,-187500.016,-187500.016,-187500.016][-15.154,3816.828,4051.432,6999.940,-187500.016,-187500.016,-187500.016,-187500.016][-76.935,3756.434,3942.423,6909.013,-187500.016,-187500.016,-187500.016,-187500.016][-126.712,3681.623,3831.357,6889.880,-187500.016,-187500.016,-187500.016,-187500.016][-235.498,3563.293,3719.419,6887.667,-187500.016,-187500.016,-187500.016,-187500.016][-46.201,3808.245,4138.515,6930.784,-187500.016,-187500.016,-187500.016,-187500.016][7.510,3841.013,4063.033,6911.405,-187500.016,-187500.016,-187500.016,-187500.016][-22.151,3800.154,3951.341,6866.031,-187500.016,-187500.016,-187500.016,-187500.016][-119.805,3698.699,3846.042,6877.050,-187500.016,-187500.016,-187500.016,-187500.016][-227.764,3576.123,3713.474,6893.836,-187500.016,-187500.016,-187500.016,-187500.016][-104.874,3738.687,4030.556,6913.908,-187500.016,-187500.016,-187500.016,-187500.016][16.540,3838.845,4024.074,6891.512,-187500.016,-187500.016,-187500.016,-187500.016][-34.846,3764.324,3937.796,6845.244,-187500.016,-187500.016,-187500.016,-187500.016][-80.712,3744.498,3958.717,6916.836,-187500.016,-187500.016,-187500.016,-187500.016][-79.840,3747.225,3919.512,6957.628,-187500.016,-187500.016,-187500.016,-187500.016][-112.362,3709.719,3827.915,6895.692,-187500.016,-187500.016,-187500.016,-187500.016][-228.859,3566.578,3714.547,6954.455,-187500.016,-187500.016,-187500.016,-187500.016][-130.914,3700.197,3960.483,6923.520,-187500.016,-187500.016,-187500.016,-187500.016][-31.807,3826.865,4068.889,6881.968,-187500.016,-187500.016,-187500.016,-187500.016][-18.932,3833.078,4007.802,6839.768,-187500.016,-187500.016,-187500.016,-187500.016][-73.358,3762.648,3938.802,6796.964,-187500.016,-187500.016,-187500.016,-187500.016][-191.242,3651.426,3840.946,6826.424,-187500.016,-187500.016,-187500.016,-187500.016][-395.067,3449.500,3695.526,6731.787,-187500.016,-187500.016,-187500.016,-187500.016][-211.984,3633.365,3849.507,6836.326,-187500.016,-187500.016,-187500.016,-187500.016][130.601,3958.986,4070.610,6960.109,-187500.016,-187500.016,-187500.016,-187500.016][-43.295,3780.708,3926.151,6936.976,-187500.016,-187500.016,-187500.016,-187500.016][-226.535,3568.612,3632.538,6891.422,-187500.016,-187500.016,-187500.016,-187500.016][-60.171,3775.187,3982.947,6866.970,-187500.016,-187500.016,-187500.016,-187500.016][-17.390,3833.861,4076.846,6869.071,-187500.016,-187500.016,-187500.016,-187500.016][-135.474,3676.728,3828.988,6832.928,-187500.016,-187500.016,-187500.016,-187500.016][-87.105,3728.405,3955.365,6973.476,-187500.016,-187500.016,-187500.016,-187500.016][-23.447,3804.356,4052.997,7006.244,-187500.016,-187500.016,-187500.016,-187500.016][-102.393,3746.577,3957.220,6838.046,-187500.016,-187500.016,-187500.016,-187500.016][-121.839,3709.786,3942.713,6825.239,-187500.016,-187500.016,-187500.016,-187500.016][-101.320,3702.119,3845.528,6965.742,-187500.016,-187500.016,-187500.016,-187500.016][-169.650,3670.693,3918.417,6887.0']
INDEX_b'2.806264877319336'___FLEX_[b'291,399,401,346,272\n292,399,401,347,272\n292,399,401,346,272\n291,399,401,347,272\n292,399,401,347,272\n292,399,401,347,273\n291,399,401,346,272\n292,399,400,346,273\n292,399,401,347,272\n291,399,401,347,273\n291,400,401,346,272\n293,400,401,347,272\n291,399,401,347,273\n292,399,401,347,274\n291,399,400,347,273\n292,399,401,347,273\n292,399,401,347,274\n292,399,400,347,272\n292,399,401,347,273\n292,400,401,347,273\n292,399,400,347,273\n292,400,401,347,273\n292,399,400,347,273\n292,399,401,347,274\n291,399,402,346,273\n293,399,401,347,273\n293,399,400,347,272\n291,399,401,348,273\n291,399,401,347,273\n292,399,401,347,274\n291,399,401,347,273\n292,399,401,347,273\n292,400,401,347,273\n292,399,400,346,272\n292,399,400,347,273\n291,399,401,346,273\n292,398,401,347,274\n292,399,401,347,274\n292,398,401,346,274\n293,399,401,348,274\n292,397,401,347,273\n291,399,400,346,274\n291,399,401,346,274\n292,399,400,347,274\n292,399,400,347,274\n292,398,401,348,273\n292,398,400,347,274\n292,399,400,347,273\n292,399,401,347,274\n291,399,401,347,274\n', b'292,399,401,347,274\n292,399,401,347,275\n293,399,401,347,274\n292,399,400,347,275\n292,398,400,347,274\n292,399,401,347,273\n291,399,401,347,275\n292,399,400,347,274\n292,399,401,347,274\n293,399,400,348,274\n292,399,401,347,274\n291,399,401,347,274\n291,398,401,347,274\n292,399,400,347,274\n292,399,401,347,274\n293,399,400,348,274\n291,399,401,347,274\n292,398,401,347,275\n291,398,401,347,274\n291,399,401,348,274\n291,398,401,347,274\n292,399,400,347,274\n291,399,401,347,275\n291,398,401,347,275\n292,399,401,347,275\n292,399,400,347,276\n291,398,401,348,275\n290,398,401,348,275\n291,399,402,348,275\n291,398,400,347,275\n292,399,401,347,275\n291,399,401,348,275\n292,398,401,347,275\n292,399,401,348,275\n291,398,401,347,273\n292,398,401,347,275\n292,398,401,347,275\n291,398,401,347,275\n291,399,401,347,275\n292,398,401,347,276\n291,398,401,348,275\n291,399,401,347,275\n292,399,401,347,276\n292,399,401,348,275\n292,399,401,348,276\n292,398,401,348,275\n291,399,401,347,275\n292,399,400,347,275\n292,399,401,348,275\n291,398,401,348,275\n', b'292,398,401,349,277\n291,399,401,348,277\n293,398,401,348,276\n292,398,401,348,276\n293,399,401,348,275\n292,398,400,347,275\n292,399,401,347,276\n292,398,401,348,276\n291,399,400,347,276\n292,398,401,348,276\n292,398,401,348,276\n291,399,401,348,275\n292,399,401,348,276\n292,398,401,348,276\n292,399,401,348,276\n291,399,400,348,276\n292,399,401,348,276\n292,398,400,348,275\n293,399,401,348,276\n292,399,401,348,275\n292,398,401,348,277\n293,398,401,348,276\n291,399,400,348,276\n292,398,400,348,275\n292,398,401,348,277\n292,398,401,349,277\n291,398,401,348,277\n292,399,401,348,277\n291,398,401,349,277\n291,398,401,348,277\n291,399,401,349,277\n292,398,401,349,277\n291,398,401,349,277\n291,399,401,348,277\n291,399,401,349,277\n291,398,400,349,277\n291,399,400,349,278\n291,398,400,349,277\n291,399,401,350,277\n291,398,401,349,278\n291,399,401,350,278\n291,398,401,350,278\n291,398,401,350,278\n291,399,401,350,278\n291,398,401,350,279\n293,398,400,350,279\n291,398,401,350,278\n292,399,400,350,279\n291,398,401,351,279\n291,398,401,351,279\n', b'291,399,401,351,280\n291,398,401,351,280\n292,398,401,351,281\n291,397,400,351,280\n291,398,400,351,280\n291,398,401,351,280\n291,398,401,351,280\n292,399,400,352,279\n291,398,400,352,281\n293,398,400,352,281\n292,399,400,352,282\n292,398,400,352,281\n291,398,401,352,282\n292,398,400,353,282\n292,398,401,353,282\n293,398,400,353,282\n293,398,401,353,282\n292,398,400,353,283\n291,398,401,354,283\n292,398,400,354,284\n291,398,400,354,285\n292,398,400,354,284\n291,398,401,355,285\n293,398,400,354,285\n292,399,400,355,285\n292,398,401,355,286\n291,398,400,355,287\n292,398,400,355,287\n292,398,400,356,287\n292,398,401,356,288\n291,397,400,356,288\n292,398,400,357,290\n292,399,400,358,290\n291,398,400,358,290\n291,398,401,358,290\n292,398,401,359,291\n291,398,400,359,292\n292,398,401,360,293\n292,399,400,360,293\n291,398,401,361,295\n292,398,401,361,295\n292,398,400,361,296\n291,398,401,361,296\n291,398,400,362,297\n291,398,400,363,298\n292,398,400,363,298\n291,398,400,363,299\n291,398,401,364,301\n291,398,401,364,300\n292,398,401,364,301\n']___EMG_[b'42,-187500.016,-187500.016,-187500.016,-187500.016][-165.649,3664.792,3873.803,6846.920,-187500.016,-187500.016,-187500.016,-187500.016][-109.233,3700.219,3855.497,6805.860,-187500.016,-187500.016,-187500.016,-187500.016][-84.780,3752.768,3943.831,6926.805,-187500.016,-187500.016,-187500.016,-187500.016][-94.190,3742.308,3989.138,6950.409,-187500.016,-187500.016,-187500.016,-187500.016][-71.973,3733.814,3847.808,6826.088,-187500.016,-187500.016,-187500.016,-187500.016][-94.548,3735.401,3931.470,6840.215,-187500.016,-187500.016,-187500.016,-187500.016][-112.407,3711.306,3947.161,6989.502,-187500.016,-187500.016,-187500.016,-187500.016][-138.849,3692.933,3926.732,6907.672,-187500.016,-187500.016,-187500.016,-187500.016][-145.644,3680.393,3849.618,6829.933,-187500.016,-187500.016,-187500.016,-187500.016][-137.061,3692.821,3929.414,6786.124,-187500.016,-187500.016,-187500.016,-187500.016][-22.955,3816.359,4075.505,6943.390,-187500.016,-187500.016,-187500.016,-187500.016][-43.787,3779.970,3963.165,7012.994,-187500.016,-187500.016,-187500.016,-187500.016][-143.096,3686.317,3865.913,6820.254,-187500.016,-187500.016,-187500.016,-187500.016][-198.752,3630.080,3787.078,6755.368,-187500.016,-187500.016,-187500.016,-187500.016][-85.786,3732.071,3908.225,6910.824,-187500.016,-187500.016,-187500.016,-187500.016][-53.287,3764.659,3972.039,6968.447,-187500.016,-187500.016,-187500.016,-187500.016][-90.793,3737.770,3927.022,6949.023,-187500.016,-187500.016,-187500.016,-187500.016][-117.615,3709.071,3877.603,6823.809,-187500.016,-187500.016,-187500.016,-187500.016][-69.357,3769.085,3987.976,6847.926,-187500.016,-187500.016,-187500.016,-187500.016][-71.637,3751.986,3967.122,6956.042,-187500.016,-187500.016,-187500.016,-187500.016][-116.475,3713.675,3925.436,6906.957,-187500.016,-187500.016,-187500.016,-187500.016][-176.668,3638.618,3807.105,6819.360,-187500.016,-187500.016,-187500.016,-187500.016][-146.203,3674.135,3938.601,6864.399,-187500.016,-187500.016,-187500.016,-187500.016][-87.999,3754.959,4021.637,6962.300,-187500.016,-187500.016,-187500.016,-187500.016][-120.834,3721.990,3939.472,6888.047,-187500.016,-187500.016,-187500.016,-187500.016][-187.553,3637.635,3809.117,6764.755,-187500.016,-187500.016,-187500.016,-187500.016][-117.369,3723.555,3883.705,6804.675,-187500.016,-187500.016,-187500.016,-187500.016][-283.107,3539.198,3673.420,6814.242,-187500.016,-187500.016,-187500.016,-187500.016][-294.082,3547.937,3916.271,6839.946,-187500.016,-187500.016,-187500.016,-187500.016][148.103,3976.934,4143.410,7010.736,-187500.016,-187500.016,-187500.016,-187500.016][23.715,3839.896,4002.370,6901.861,-187500.016,-187500.016,-187500.016,-187500.016][-71.950,3746.465,3936.276,6936.729,-187500.016,-187500.016,-187500.016,-187500.016][-83.573,3751.070,3971.771,6959.350,-187500.016,-187500.016,-187500.016,-187500.016][-75.594,3747.851,3934.600,6870.099,-187500.016,-187500.016,-187500.016,-187500.016][-100.203,3719.509,3893.830,6867.260,-187500.016,-187500.016,-187500.016,-187500.016][-138.134,3670.357,3850.334,6913.126,-187500.016,-187500.016,-187500.016,-187500.016][-156.596,3675.856,3844.679,6877.386,-187500.016,-187500.016,-187500.016,-187500.016][-188.246,3623.352,3825.344,6852.017,-187500.016,-187500.016,-187500.016,-187500.016][-76.488,3766.090,3989.518,6775.126,-187500.016,-187500.016,-187500.016,-187500.016][-24.006,3801.696,4014.328,6899.916,-187500.016,-187500.016,-187500.016,-187500.016][-125.103,3715.195,3935.270,6942.809,-187500.016,-187500.016,-187500.016,-187500.016][-243.656,3574.983,3821.947,6775.998,-187500.016,-187500.016,-187500.016,-187500.016][-74.923,3752.411,3896.646,6839.209,-187500.016,-187500.016,-187500.016,-187500.016][-17.479,3813.364,3995.821,6932.147,-187500.016,-187500.016,-187500.016,-187500.016][-64.015,3754.311,3993.519,7021.867,-187500.016,-187500.016,-187500.016,-187500.016][-95.531,3730.931,3964.305,6939.121,-187500.016,-187500.016,-187500.016,-187500.016][-110.105,3722.750,3913.209,6834.895,-187500.016,-187500.016,-187500.016,-187500.016][-164.710,3657.483,3839.985,6829.866,-187500.016,-187500.016,-187500.016,-', b'187500.016][-228.412,3586.829,3752.813,6860.376,-187500.016,-187500.016,-187500.016,-187500.016][-61.087,3771.589,4008.986,6936.372,-187500.016,-187500.016,-187500.016,-187500.016][-21.860,3795.974,4039.988,6878.280,-187500.016,-187500.016,-187500.016,-187500.016][-97.722,3724.829,3945.507,6821.037,-187500.016,-187500.016,-187500.016,-187500.016][-94.749,3724.762,3943.607,6956.153,-187500.016,-187500.016,-187500.016,-187500.016][-152.528,3662.981,3854.245,6964.848,-187500.016,-187500.016,-187500.016,-187500.016][-217.684,3592.797,3785.067,6789.476,-187500.016,-187500.016,-187500.016,-187500.016][-255.369,3590.227,3850.088,6680.221,-187500.016,-187500.016,-187500.016,-187500.016][-7.957,3828.250,4061.803,7021.264,-187500.016,-187500.016,-187500.016,-187500.016][-33.706,3788.084,3994.547,6978.639,-187500.016,-187500.016,-187500.016,-187500.016][-134.110,3691.256,3913.947,6860.711,-187500.016,-187500.016,-187500.016,-187500.016][-88.781,3734.932,3896.714,6832.012,-187500.016,-187500.016,-187500.016,-187500.016][-82.746,3728.964,3907.755,6915.115,-187500.016,-187500.016,-187500.016,-187500.016][-182.122,3629.990,3829.770,6921.195,-187500.016,-187500.016,-187500.016,-187500.016][-235.073,3584.169,3735.289,6753.646,-187500.016,-187500.016,-187500.016,-187500.016][-63.613,3770.896,3986.724,6807.156,-187500.016,-187500.016,-187500.016,-187500.016][-16.920,3801.629,4046.202,6926.470,-187500.016,-187500.016,-187500.016,-187500.016][-44.413,3750.533,3992.133,6966.278,-187500.016,-187500.016,-187500.016,-187500.016][-65.915,3741.570,3949.084,6878.838,-187500.016,-187500.016,-187500.016,-187500.016][-96.023,3713.429,3883.750,6814.711,-187500.016,-187500.016,-187500.016,-187500.016][-143.811,3664.121,3867.053,6818.779,-187500.016,-187500.016,-187500.016,-187500.016][-216.387,3596.105,3836.632,6848.887,-187500.016,-187500.016,-187500.016,-187500.016][-99.957,3723.555,3955.879,6978.192,-187500.016,-187500.016,-187500.016,-187500.016][-40.501,3797.092,4012.272,6878.034,-187500.016,-187500.016,-187500.016,-187500.016][-97.945,3730.461,3917.568,6821.439,-187500.016,-187500.016,-187500.016,-187500.016][-91.709,3730.394,3957.600,6965.988,-187500.016,-187500.016,-187500.016,-187500.016][-78.656,3728.696,3958.404,6963.060,-187500.016,-187500.016,-187500.016,-187500.016][-119.068,3708.311,3927.022,6841.824,-187500.016,-187500.016,-187500.016,-187500.016][-115.067,3704.869,3918.573,6841.534,-187500.016,-187500.016,-187500.016,-187500.016][-152.908,3665.641,3901.765,6895.848,-187500.016,-187500.016,-187500.016,-187500.016][-138.871,3679.075,3957.175,6928.392,-187500.016,-187500.016,-187500.016,-187500.016][-97.141,3726.505,3938.556,6820.880,-187500.016,-187500.016,-187500.016,-187500.016][-78.946,3738.284,3916.964,6800.943,-187500.016,-187500.016,-187500.016,-187500.016][-159.279,3646.531,3840.901,6863.282,-187500.016,-187500.016,-187500.016,-187500.016][-153.467,3659.897,3924.251,6947.302,-187500.016,-187500.016,-187500.016,-187500.016][-66.474,3753.215,3933.862,6856.241,-187500.016,-187500.016,-187500.016,-187500.016][-135.250,3671.989,3867.142,6796.204,-187500.016,-187500.016,-187500.016,-187500.016][-120.230,3666.647,3895.082,6912.366,-187500.016,-187500.016,-187500.016,-187500.016][-83.193,3726.349,3927.782,6938.629,-187500.016,-187500.016,-187500.016,-187500.016][-120.744,3696.129,3862.068,6851.458,-187500.016,-187500.016,-187500.016,-187500.016][-108.540,3698.208,3882.118,6820.031,-187500.016,-187500.016,-187500.016,-187500.016][-89.854,3726.259,3977.917,6893.367,-187500.016,-187500.016,-187500.016,-187500.016][-88.267,3739.782,3976.196,6924.257,-187500.016,-187500.016,-187500.016,-187500.016][-115.134,3704.220,3906.437,6866.858,-187500.016,-187500.016,-187500.016,-187500.016][-97.923,3716.693,3914.506,6813.393,-187500.016,-187500.016,-187500.016,-187500.016][-96.694,3704.354,3921.189,6909.326,-187500.016,-187500.016,-187500.016,-187500.016][-183.351,3629.789,3866.271,6914.221,-187500.016,-187500.016,-187500.016,-187500.016][-91.754,3728.919,3964.417,6901.570,-187500.016,-187500.016,-187500.016,-187500.016][-55.477,3767.655,3950.917,6809.2']
INDEX_b'3.2063615322113037'___FLEX_[b'291,398,400,364,302\n291,399,401,365,302\n291,398,400,365,303\n291,398,400,366,303\n291,398,400,366,303\n291,398,400,366,305\n290,398,400,366,305\n291,398,400,367,305\n291,398,400,367,305\n291,398,401,367,306\n291,398,401,367,306\n291,398,401,367,306\n291,398,401,368,307\n291,398,399,368,307\n292,398,400,367,308\n291,398,401,368,308\n291,398,400,368,307\n291,398,401,368,308\n291,398,401,368,308\n291,398,400,369,309\n291,398,400,369,309\n291,398,401,368,309\n291,398,400,368,310\n291,399,401,369,309\n293,398,401,369,309\n291,398,401,370,310\n291,399,400,369,310\n291,398,400,369,310\n293,398,400,369,310\n291,398,401,370,310\n291,398,401,370,310\n291,398,400,370,310\n291,398,400,369,311\n292,398,401,370,311\n292,397,400,369,311\n291,398,400,370,312\n291,398,400,371,312\n292,398,400,370,312\n291,397,401,371,312\n292,399,400,370,312\n292,398,401,371,313\n292,398,400,371,313\n292,398,400,371,314\n293,398,402,371,314\n291,398,400,372,314\n292,398,401,372,314\n292,397,400,373,315\n291,398,400,373,315\n292,398,400,373,315\n292,397,401,373,316\n', b'292,398,401,373,316\n292,398,401,373,317\n292,398,401,374,316\n291,398,400,374,315\n291,398,401,374,317\n292,397,400,375,318\n291,398,400,375,319\n292,398,400,376,320\n291,398,400,375,321\n292,398,400,376,321\n291,398,400,376,321\n291,398,400,376,322\n291,398,401,377,322\n292,398,401,377,323\n292,398,400,377,324\n291,398,400,378,325\n291,398,400,377,325\n291,398,400,377,327\n291,398,400,378,327\n291,398,400,377,328\n291,398,401,378,329\n291,398,400,378,329\n291,398,400,379,330\n292,398,401,379,330\n291,398,401,379,332\n291,398,400,379,332\n291,398,400,379,333\n291,398,400,379,334\n291,398,401,380,335\n291,398,401,379,335\n291,397,400,379,336\n292,398,400,380,336\n291,398,401,380,337\n291,398,400,380,338\n291,398,400,380,339\n291,398,400,380,339\n291,398,400,381,341\n291,398,400,381,341\n291,398,400,381,342\n292,398,401,381,343\n291,398,400,380,343\n293,398,401,381,344\n291,398,401,381,346\n291,398,401,380,345\n292,398,401,381,346\n291,398,400,381,346\n291,398,401,381,347\n291,398,401,381,347\n291,398,401,381,348\n291,398,400,381,349\n', b'291,398,400,381,350\n292,398,400,381,350\n291,398,401,381,351\n291,398,400,382,352\n291,398,400,383,352\n291,398,400,382,352\n292,398,400,382,354\n292,398,400,382,354\n291,398,401,382,355\n291,397,401,382,356\n292,398,401,382,357\n292,398,401,382,358\n291,398,401,382,358\n291,398,400,382,358\n291,398,401,383,359\n291,397,400,383,361\n291,398,401,383,360\n292,398,401,383,361\n291,397,400,383,362\n291,398,401,383,362\n291,398,400,383,363\n291,398,400,383,363\n291,397,400,383,364\n291,398,400,383,365\n291,398,400,383,365\n291,398,400,384,366\n292,396,400,383,366\n292,397,400,384,367\n291,398,401,383,368\n292,398,400,384,367\n292,398,400,384,369\n291,398,401,383,369\n292,398,400,384,370\n292,398,400,384,370\n292,399,401,383,371\n291,398,401,384,371\n291,398,400,383,372\n292,398,400,384,372\n291,398,400,383,373\n291,398,400,383,373\n291,398,400,384,373\n292,398,400,384,374\n291,398,400,384,374\n291,399,400,384,375\n291,398,400,384,375\n292,398,400,384,375\n291,398,400,385,375\n292,398,400,384,376\n291,398,400,384,377\n292,398,400,383,377\n', b'291,398,400,384,378\n292,398,400,384,378\n292,398,400,385,379\n291,398,400,384,378\n291,399,400,384,379\n291,397,400,385,379\n292,398,400,385,380\n291,398,400,384,380\n291,398,401,384,381\n292,398,400,384,382\n291,398,400,384,381\n291,397,401,384,382\n291,398,400,384,382\n291,398,400,384,383\n291,398,401,385,383\n291,398,400,384,383\n292,398,401,384,383\n292,398,401,385,384\n291,398,400,385,384\n292,398,401,385,384\n291,398,400,385,385\n291,398,401,385,385\n291,398,400,385,385\n292,398,401,385,385\n292,398,401,385,386\n291,398,401,386,386\n291,398,401,385,387\n292,398,401,385,386\n292,398,401,385,387\n291,398,400,385,387\n292,398,400,385,387\n292,398,401,386,388\n291,398,400,385,388\n292,399,401,386,389\n291,398,400,385,388\n292,398,400,386,389\n292,398,401,385,388\n292,398,400,386,389\n292,398,401,386,389\n292,398,401,386,390\n292,398,401,386,389\n292,398,400,386,390\n292,398,401,386,389\n292,397,400,386,390\n291,399,400,386,390\n292,398,401,386,391\n291,398,400,386,391\n292,398,400,387,391\n292,398,400,387,391\n292,398,400,387,391\n', b'292,398,400,387,391\n293,398,401,388,392\n292,398,400,387,392\n292,399,400,387,392\n291,398,398,387,392\n293,398,400,387,393\n292,398,401,388,393\n292,398,400,388,394\n292,398,401,388,394\n292,397,400,387,393\n291,398,401,388,394\n291,398,401,388,394\n292,398,400,388,395\n292,398,400,388,394\n291,398,400,388,394\n291,399,401,389,394\n291,398,401,389,395\n292,398,400,388,395\n290,398,401,389,396\n292,398,400,389,396\n292,398,400,388,396\n292,398,401,389,396\n292,398,400,389,396\n292,398,401,389,397\n291,398,399,387,397\n291,398,400,389,397\n292,398,400,389,397\n292,398,402,389,397\n292,398,401,389,397\n291,398,400,388,398\n291,398,400,389,398\n292,398,401,389,399\n292,398,401,389,398\n292,398,400,389,399\n291,399,401,389,399\n290,398,401,389,399\n291,398,401,390,399\n291,398,400,389,399\n291,398,400,389,399\n292,398,401,390,399\n291,398,400,389,399\n291,398,400,390,400\n291,398,401,389,399\n292,398,400,390,399\n291,399,401,390,400\n292,398,400,389,400\n291,398,401,389,400\n292,399,401,390,401\n291,398,401,390,400\n291,398,400,389,400\n']___EMG_[b'35,-187500.016,-187500.016,-187500.016,-187500.016][-70.721,3738.240,3954.627,6825.843,-187500.016,-187500.016,-187500.016,-187500.016][-114.776,3699.057,3943.809,6908.052,-187500.016,-187500.016,-187500.016,-187500.016][-140.771,3689.289,3918.015,6898.709,-187500.016,-187500.016,-187500.016,-187500.016][-107.445,3702.253,3945.843,6822.154,-187500.016,-187500.016,-187500.016,-187500.016][-116.698,3704.243,3914.282,6801.479,-187500.016,-187500.016,-187500.016,-187500.016][-139.050,3666.312,3851.027,6893.993,-187500.016,-187500.016,-187500.016,-187500.016][-126.377,3686.205,3905.498,6959.953,-187500.016,-187500.016,-187500.016,-187500.016][-135.139,3693.089,3892.623,6806.486,-187500.016,-187500.016,-187500.016,-187500.016][-71.973,3752.388,3931.716,6809.257,-187500.016,-187500.016,-187500.016,-187500.016][-86.032,3731.221,3930.174,6899.380,-187500.016,-187500.016,-187500.016,-187500.016][-125.103,3676.728,3894.613,6952.823,-187500.016,-187500.016,-187500.016,-187500.016][-118.598,3672.816,3887.013,6908.320,-187500.016,-187500.016,-187500.016,-187500.016][-152.975,3680.684,3915.869,6795.355,-187500.016,-187500.016,-187500.016,-187500.016][-191.577,3622.234,3854.290,6831.341,-187500.016,-187500.016,-187500.016,-187500.016][-119.001,3695.213,3889.941,6876.782,-187500.016,-187500.016,-187500.016,-187500.016][-66.832,3770.560,3960.483,6865.628,-187500.016,-187500.016,-187500.016,-187500.016][-47.117,3765.375,3897.228,6828.436,-187500.016,-187500.016,-187500.016,-187500.016][-85.294,3722.661,3877.893,6873.698,-187500.016,-187500.016,-187500.016,-187500.016][-156.976,3662.065,3880.553,6931.455,-187500.016,-187500.016,-187500.016,-187500.016][-131.115,3687.658,3929.504,6869.496,-187500.016,-187500.016,-187500.016,-187500.016][-118.174,3674.694,3920.295,6794.751,-187500.016,-187500.016,-187500.016,-187500.016][-107.646,3693.402,3869.467,6781.542,-187500.016,-187500.016,-187500.016,-187500.016][-60.439,3762.380,3944.367,6944.776,-187500.016,-187500.016,-187500.016,-187500.016][-104.204,3716.715,3901.475,6906.890,-187500.016,-187500.016,-187500.016,-187500.016][-104.785,3716.536,3893.093,6817.818,-187500.016,-187500.016,-187500.016,-187500.016][-112.809,3699.191,3899.284,6852.821,-187500.016,-187500.016,-187500.016,-187500.016][-148.617,3651.515,3873.736,6934.494,-187500.016,-187500.016,-187500.016,-187500.016][-170.611,3622.413,3860.012,6844.283,-187500.016,-187500.016,-187500.016,-187500.016][-147.097,3670.402,3951.364,6787.912,-187500.016,-187500.016,-187500.016,-187500.016][-77.873,3759.809,3934.868,6802.329,-187500.016,-187500.016,-187500.016,-187500.016][-76.108,3749.125,3915.266,6901.771,-187500.016,-187500.016,-187500.016,-187500.016][-97.990,3712.602,3896.803,6946.229,-187500.016,-187500.016,-187500.016,-187500.016][-103.399,3693.938,3888.823,6825.418,-187500.016,-187500.016,-187500.016,-187500.016][-149.667,3678.762,3896.624,6760.441,-187500.016,-187500.016,-187500.016,-187500.016][-124.991,3695.950,3930.085,6885.365,-187500.016,-187500.016,-187500.016,-187500.016][-98.839,3712.267,3934.890,6969.631,-187500.016,-187500.016,-187500.016,-187500.016][-102.952,3710.702,3890.969,6833.956,-187500.016,-187500.016,-187500.016,-187500.016][-146.985,3676.258,3893.920,6774.322,-187500.016,-187500.016,-187500.016,-187500.016][-115.067,3696.375,3908.783,6873.117,-187500.016,-187500.016,-187500.016,-187500.016][-124.209,3678.516,3892.243,6970.615,-187500.016,-187500.016,-187500.016,-187500.016][-137.374,3661.730,3877.379,6894.999,-187500.016,-187500.016,-187500.016,-187500.016][-99.644,3732.026,3917.791,6760.933,-187500.016,-187500.016,-187500.016,-187500.016][-152.439,3672.168,3857.106,6760.083,-187500.016,-187500.016,-187500.016,-187500.016][-229.239,3590.651,3848.210,6801.658,-187500.016,-187500.016,-187500.016,-187500.016][-52.571,3762.894,3947.340,6927.252,-187500.016,-187500.016,-187500.016,-187500.016][-48.526,3758.334,3890.589,6847.904,-187500.016,-187500.016,-187500.016,-187500.016][-80.377,3721.543,3890.120,6899.827,-187500.016,-187500.016,-187500.016,-187500.016][-125.661,3682.025,3919.646,6947.503,-187500.016,-187500.016,-187', b'500.016,-187500.016][-117.838,3691.972,3916.204,6874.033,-187500.016,-187500.016,-187500.016,-187500.016][-158.787,3650.509,3849.261,6778.188,-187500.016,-187500.016,-187500.016,-187500.016][-115.469,3691.569,3886.655,6784.268,-187500.016,-187500.016,-187500.016,-187500.016][-71.302,3732.182,3920.876,6907.225,-187500.016,-187500.016,-187500.016,-187500.016][-101.857,3708.870,3905.274,6904.677,-187500.016,-187500.016,-187500.016,-187500.016][-109.993,3704.667,3878.273,6798.573,-187500.016,-187500.016,-187500.016,-187500.016][-127.628,3684.663,3855.363,6790.102,-187500.016,-187500.016,-187500.016,-187500.016][-175.864,3634.773,3918.730,6853.000,-187500.016,-187500.016,-187500.016,-187500.016][-193.723,3614.389,3888.019,6874.167,-187500.016,-187500.016,-187500.016,-187500.016][-77.337,3693.693,3791.839,6861.739,-187500.016,-187500.016,-187500.016,-187500.016][-102.572,3707.327,3850.982,6780.379,-187500.016,-187500.016,-187500.016,-187500.016][-93.251,3737.167,3931.091,6880.604,-187500.016,-187500.016,-187500.016,-187500.016][-97.699,3721.677,3924.027,6930.739,-187500.016,-187500.016,-187500.016,-187500.016][-125.706,3686.384,3868.170,6852.776,-187500.016,-187500.016,-187500.016,-187500.016][-120.744,3689.155,3884.152,6812.946,-187500.016,-187500.016,-187500.016,-187500.016][-111.111,3705.606,3937.550,6855.190,-187500.016,-187500.016,-187500.016,-187500.016][-113.659,3696.554,3881.269,6896.809,-187500.016,-187500.016,-187500.016,-187500.016][-99.577,3703.192,3875.412,6858.476,-187500.016,-187500.016,-187500.016,-187500.016][-95.777,3707.931,3859.342,6750.293,-187500.016,-187500.016,-187500.016,-187500.016][-117.704,3698.297,3894.702,6832.794,-187500.016,-187500.016,-187500.016,-187500.016][-150.673,3669.039,3901.787,6920.904,-187500.016,-187500.016,-187500.016,-187500.016][-174.075,3644.966,3860.906,6843.702,-187500.016,-187500.016,-187500.016,-187500.016][-103.310,3706.880,3873.803,6787.509,-187500.016,-187500.016,-187500.016,-187500.016][-111.334,3707.752,3893.473,6799.132,-187500.016,-187500.016,-187500.016,-187500.016][-144.906,3681.511,3887.058,6903.984,-187500.016,-187500.016,-187500.016,-187500.016][-139.184,3679.723,3874.406,6856.710,-187500.016,-187500.016,-187500.016,-187500.016][-102.751,3718.637,3840.544,6804.407,-187500.016,-187500.016,-187500.016,-187500.016][-136.994,3677.756,3832.251,6806.218,-187500.016,-187500.016,-187500.016,-187500.016][-138.044,3685.042,3913.589,6870.568,-187500.016,-187500.016,-187500.016,-187500.016][-118.822,3695.324,3865.622,6891.981,-187500.016,-187500.016,-187500.016,-187500.016][-126.310,3695.481,3840.611,6772.757,-187500.016,-187500.016,-187500.016,-187500.016][-83.998,3723.063,3858.403,6811.783,-187500.016,-187500.016,-187500.016,-187500.016][-119.023,3686.339,3859.274,6922.693,-187500.016,-187500.016,-187500.016,-187500.016][-162.229,3648.810,3888.332,6910.556,-187500.016,-187500.016,-187500.016,-187500.016][-200.763,3620.535,3835.537,6694.437,-187500.016,-187500.016,-187500.016,-187500.016][-78.097,3720.939,3805.384,6807.514,-187500.016,-187500.016,-187500.016,-187500.016][-93.408,3728.293,3901.430,6882.594,-187500.016,-187500.016,-187500.016,-187500.016][-113.681,3708.020,3869.623,6912.366,-187500.016,-187500.016,-187500.016,-187500.016][-118.487,3702.030,3867.478,6827.117,-187500.016,-187500.016,-187500.016,-187500.016][-113.659,3694.385,3828.250,6772.422,-187500.016,-187500.016,-187500.016,-187500.016][-129.573,3656.768,3795.304,6866.456,-187500.016,-187500.016,-187500.016,-187500.016][-111.446,3673.688,3862.091,6866.702,-187500.016,-187500.016,-187500.016,-187500.016][-62.540,3689.356,3852.055,6818.131,-187500.016,-187500.016,-187500.016,-187500.016][-18.820,3715.709,3831.938,6778.055,-187500.016,-187500.016,-187500.016,-187500.016][-21.480,3704.556,3853.485,6819.249,-187500.016,-187500.016,-187500.016,-187500.016][-10.706,3691.301,3889.271,6907.203,-187500.016,-187500.016,-187500.016,-187500.016][-6.191,3673.934,3850.714,6852.508,-187500.016,-187500.016,-187500.016,-187500.016][-16.272,3633.723,3777.556,6742.761,-187500.016,-187500.016,-187500.016,-187500.016][25.280,3659']
INDEX_b'3.607318639755249'___FLEX_[b'292,398,401,390,401\n291,398,401,390,400\n292,397,400,389,401\n292,398,400,389,401\n292,397,400,389,401\n291,398,400,390,401\n292,398,401,389,401\n291,398,401,390,401\n291,398,400,390,401\n292,398,401,390,401\n292,398,401,390,401\n291,397,401,390,401\n291,398,401,389,402\n292,398,401,390,401\n291,398,401,390,401\n291,398,401,390,401\n291,398,401,389,402\n292,398,400,390,401\n291,398,401,390,401\n292,398,401,390,401\n292,398,400,389,402\n292,398,401,390,401\n292,398,400,390,402\n292,399,400,390,402\n291,398,400,390,402\n291,398,401,390,402\n292,398,401,390,402\n291,398,400,390,402\n291,399,401,390,402\n291,398,401,390,402\n292,398,401,389,402\n290,398,401,390,402\n292,398,401,390,403\n291,398,400,390,403\n292,398,400,390,403\n291,398,400,390,403\n292,398,401,390,402\n292,398,401,390,402\n292,398,400,391,404\n292,398,401,390,403\n291,398,401,389,403\n292,398,400,390,403\n291,398,400,390,403\n291,398,400,390,404\n292,398,400,390,404\n292,398,401,390,403\n292,398,400,390,403\n292,399,400,390,403\n292,398,401,390,403\n292,398,400,390,404\n', b'291,398,401,390,404\n292,398,401,390,404\n291,398,401,390,404\n292,398,401,390,403\n292,398,400,390,403\n291,398,401,390,404\n291,398,401,390,404\n292,398,401,390,404\n291,399,401,390,404\n291,397,400,390,404\n292,398,401,390,404\n292,398,401,390,404\n291,398,400,391,403\n291,397,401,390,404\n291,399,401,390,404\n292,398,400,390,405\n291,398,400,391,404\n292,399,401,391,404\n292,398,401,390,404\n292,399,400,390,405\n291,398,401,390,404\n292,398,401,390,404\n291,398,401,390,404\n292,398,401,391,404\n291,398,401,391,404\n292,398,400,390,404\n291,398,401,390,404\n292,398,401,390,404\n292,399,401,390,405\n291,398,401,390,404\n292,398,401,391,404\n291,398,401,390,405\n292,398,401,390,405\n292,398,401,391,405\n292,398,401,390,405\n291,398,402,390,406\n292,398,400,390,405\n292,398,401,391,404\n291,398,401,391,404\n292,398,400,391,405\n291,398,401,390,405\n292,398,400,391,405\n292,398,401,390,405\n292,398,401,391,405\n291,398,401,390,405\n292,398,400,390,405\n292,398,400,390,405\n291,399,400,390,405\n291,398,401,390,405\n292,399,401,390,405\n', b'292,398,401,391,405\n292,398,400,390,405\n291,398,401,390,405\n291,398,401,391,405\n291,398,401,390,405\n291,398,401,390,405\n291,398,400,390,405\n293,399,401,390,405\n291,398,401,390,405\n291,398,401,390,405\n292,398,400,391,405\n291,398,400,390,406\n291,399,401,390,405\n293,399,401,391,404\n292,398,401,390,405\n292,398,401,391,405\n291,398,400,390,405\n291,398,400,390,404\n291,398,401,391,406\n291,398,401,391,405\n292,398,401,390,404\n291,398,401,391,406\n291,399,401,390,406\n291,398,401,390,405\n291,398,401,391,406\n292,398,401,391,405\n292,398,401,391,405\n292,398,401,391,405\n291,397,400,390,405\n292,398,401,391,406\n291,398,401,390,405\n293,398,401,391,405\n291,399,401,391,405\n292,398,401,391,406\n292,398,401,391,405\n292,398,400,391,405\n291,398,400,391,405\n291,399,400,391,405\n291,398,401,391,405\n292,398,401,390,405\n291,398,400,390,406\n292,399,401,391,406\n291,398,401,391,406\n292,398,400,391,405\n292,398,401,391,405\n291,398,401,391,406\n291,398,401,391,406\n291,398,401,390,406\n291,398,401,390,405\n292,398,400,391,405\n', b'292,398,401,390,406\n291,398,401,390,406\n292,397,401,391,405\n292,398,401,391,406\n291,398,400,390,405\n292,398,401,391,406\n291,398,401,391,406\n292,398,401,390,405\n292,398,401,390,406\n293,398,401,390,405\n291,398,401,391,406\n292,399,401,390,406\n291,398,400,390,406\n291,398,401,391,406\n291,398,401,390,405\n292,398,401,391,404\n291,399,401,391,406\n293,398,401,391,406\n292,398,400,390,406\n292,398,400,390,405\n291,398,401,391,407\n292,399,401,391,406\n292,398,400,390,406\n292,398,401,391,406\n291,398,400,390,405\n292,398,400,388,406\n291,399,400,391,406\n291,398,401,390,406\n292,399,401,391,406\n292,399,401,390,406\n291,398,401,391,406\n291,398,400,391,406\n292,398,401,390,407\n291,398,401,391,406\n291,399,402,390,406\n291,398,401,391,407\n291,398,401,391,405\n291,398,401,391,406\n291,398,401,391,406\n292,398,401,391,406\n291,398,401,390,406\n292,398,401,391,406\n292,399,401,390,406\n292,398,400,391,405\n291,399,402,390,406\n291,399,401,391,406\n292,398,401,391,406\n292,398,400,391,406\n291,398,401,391,404\n291,398,401,390,404\n', b'293,399,401,391,406\n292,398,401,391,407\n291,398,401,391,406\n291,398,401,390,406\n291,398,401,391,406\n292,398,400,391,406\n291,398,400,391,407\n292,398,401,391,406\n291,399,402,391,407\n291,398,401,390,406\n292,398,401,391,406\n292,398,400,391,407\n292,398,401,391,406\n292,398,400,391,406\n291,399,401,390,407\n292,398,400,391,406\n291,398,401,391,407\n292,398,401,390,406\n291,398,401,391,406\n291,399,401,390,406\n291,399,401,390,407\n292,399,401,390,406\n291,398,401,391,406\n292,398,401,391,406\n291,398,401,391,406\n292,398,401,391,407\n292,398,401,390,406\n291,398,401,390,407\n291,398,401,390,406\n292,398,400,391,406\n291,399,401,391,407\n292,398,401,391,406\n291,398,401,391,406\n292,398,401,391,406\n291,398,401,391,406\n292,398,401,391,406\n292,398,401,391,407\n291,399,401,391,406\n292,399,400,391,406\n292,398,400,391,407\n291,398,400,391,406\n291,398,401,391,406\n292,399,401,391,406\n292,399,401,391,406\n291,398,401,391,406\n291,399,401,391,406\n291,398,401,391,406\n291,399,401,391,406\n292,399,401,391,406\n292,399,401,391,407\n']___EMG_[b'.584,3867.746,6802.083,-187500.016,-187500.016,-187500.016,-187500.016][75.325,3710.144,3872.194,6916.457,-187500.016,-187500.016,-187500.016,-187500.016][98.169,3723.644,3889.472,6900.542,-187500.016,-187500.016,-187500.016,-187500.016][79.148,3707.461,3863.454,6761.917,-187500.016,-187500.016,-187500.016,-187500.016][74.565,3681.019,3845.416,6745.220,-187500.016,-187500.016,-187500.016,-187500.016][101.388,3672.436,3847.808,6939.077,-187500.016,-187500.016,-187500.016,-187500.016][111.111,3687.188,3854.536,6917.373,-187500.016,-187500.016,-187500.016,-187500.016][70.587,3648.609,3808.424,6772.869,-187500.016,-187500.016,-187500.016,-187500.016][150.092,3708.177,3860.392,6782.257,-187500.016,-187500.016,-187500.016,-187500.016][120.498,3686.674,3894.367,6834.939,-187500.016,-187500.016,-187500.016,-187500.016][132.166,3686.495,3835.179,6904.163,-187500.016,-187500.016,-187500.016,-187500.016][139.564,3684.082,3793.180,6782.100,-187500.016,-187500.016,-187500.016,-187500.016][153.691,3696.330,3817.007,6752.283,-187500.016,-187500.016,-187500.016,-187500.016][137.776,3657.058,3801.696,6879.732,-187500.016,-187500.016,-187500.016,-187500.016][139.989,3679.499,3864.952,6854.587,-187500.016,-187500.016,-187500.016,-187500.016][194.460,3725.209,3860.213,6809.414,-187500.016,-187500.016,-187500.016,-187500.016][221.752,3722.929,3826.283,6778.233,-187500.016,-187500.016,-187500.016,-187500.016][185.877,3697.984,3839.091,6850.184,-187500.016,-187500.016,-187500.016,-187500.016][183.597,3695.771,3872.060,6922.603,-187500.016,-187500.016,-187500.016,-187500.016][196.941,3702.365,3846.981,6838.874,-187500.016,-187500.016,-187500.016,-187500.016][192.985,3692.128,3838.040,6773.271,-187500.016,-187500.016,-187500.016,-187500.016][191.465,3677.532,3828.027,6836.817,-187500.016,-187500.016,-187500.016,-187500.016][185.765,3666.290,3867.768,6884.538,-187500.016,-187500.016,-187500.016,-187500.016][210.330,3687.300,3861.018,6838.270,-187500.016,-187500.016,-187500.016,-187500.016][199.512,3701.069,3816.180,6790.080,-187500.016,-187500.016,-187500.016,-187500.016][201.479,3679.768,3820.427,6787.286,-187500.016,-187500.016,-187500.016,-187500.016][201.076,3682.383,3861.845,6877.498,-187500.016,-187500.016,-187500.016,-187500.016][183.038,3654.577,3846.445,6893.345,-187500.016,-187500.016,-187500.016,-187500.016][210.531,3685.490,3806.725,6753.378,-187500.016,-187500.016,-187500.016,-187500.016][243.366,3715.441,3815.644,6780.066,-187500.016,-187500.016,-187500.016,-187500.016][233.218,3707.171,3849.395,6878.034,-187500.016,-187500.016,-187500.016,-187500.016][206.150,3659.472,3796.444,6869.428,-187500.016,-187500.016,-187500.016,-187500.016][136.726,3595.747,3730.573,6729.484,-187500.016,-187500.016,-187500.016,-187500.016][263.549,3739.201,3903.151,6779.664,-187500.016,-187500.016,-187500.016,-187500.016][266.254,3735.490,3860.727,6856.151,-187500.016,-187500.016,-187500.016,-187500.016][224.926,3694.676,3862.940,6869.384,-187500.016,-187500.016,-187500.016,-187500.016][232.972,3689.021,3811.598,6799.780,-187500.016,-187500.016,-187500.016,-187500.016][243.589,3692.262,3798.142,6790.929,-187500.016,-187500.016,-187500.016,-187500.016][217.214,3665.373,3863.298,6876.000,-187500.016,-187500.016,-187500.016,-187500.016][187.777,3634.416,3822.528,6852.799,-187500.016,-187500.016,-187500.016,-187500.016][209.257,3702.656,3798.701,6804.787,-187500.016,-187500.016,-187500.016,-187500.016][168.175,3706.165,3807.575,6764.040,-187500.016,-187500.016,-187500.016,-187500.016][98.079,3669.106,3843.986,6797.858,-187500.016,-187500.016,-187500.016,-187500.016][67.525,3649.324,3824.473,6872.178,-187500.016,-187500.016,-187500.016,-187500.016][91.061,3688.530,3808.469,6869.272,-187500.016,-187500.016,-187500.016,-187500.016][80.645,3693.089,3769.041,6787.107,-187500.016,-187500.016,-187500.016,-187500.016][39.048,3676.482,3830.441,6790.281,-187500.016,-187500.016,-187500.016,-187500.016][43.429,3699.616,3885.359,6838.940,-187500.016,-187500.016,-187500.016,-187500.016][64.775,3734.417,3880.330,6851.972,-187500.016,-187500.016,-187500.016,-187500.016][35.1', b'15,3714.100,3856.682,6756.105,-187500.016,-187500.016,-187500.016,-187500.016][30.130,3703.103,3826.574,6807.626,-187500.016,-187500.016,-187500.016,-187500.016][-36.590,3632.069,3816.471,6961.182,-187500.016,-187500.016,-187500.016,-187500.016][-73.984,3622.860,3810.235,6841.153,-187500.016,-187500.016,-187500.016,-187500.016][3.800,3713.474,3806.256,6690.056,-187500.016,-187500.016,-187500.016,-187500.016][31.449,3749.639,3841.460,6779.217,-187500.016,-187500.016,-187500.016,-187500.016][-4.850,3709.652,3861.800,6875.307,-187500.016,-187500.016,-187500.016,-187500.016][-39.496,3682.360,3847.540,6886.550,-187500.016,-187500.016,-187500.016,-187500.016][-80.042,3638.752,3742.822,6773.942,-187500.016,-187500.016,-187500.016,-187500.016][-54.896,3666.468,3826.306,6739.654,-187500.016,-187500.016,-187500.016,-187500.016][-26.330,3704.086,3885.649,6893.770,-187500.016,-187500.016,-187500.016,-187500.016][-63.568,3679.700,3803.865,6859.214,-187500.016,-187500.016,-187500.016,-187500.016][-57.645,3685.601,3784.798,6771.036,-187500.016,-187500.016,-187500.016,-187500.016][-37.752,3718.883,3830.463,6750.137,-187500.016,-187500.016,-187500.016,-187500.016][-84.914,3670.894,3835.179,6818.288,-187500.016,-187500.016,-187500.016,-187500.016][-83.886,3662.110,3831.156,6912.590,-187500.016,-187500.016,-187500.016,-187500.016][-124.253,3632.091,3761.441,6786.392,-187500.016,-187500.016,-187500.016,-187500.016][-80.310,3663.518,3760.837,6720.409,-187500.016,-187500.016,-187500.016,-187500.016][-42.334,3714.994,3835.514,6859.571,-187500.016,-187500.016,-187500.016,-187500.016][-59.702,3720.560,3885.270,6901.838,-187500.016,-187500.016,-187500.016,-187500.016][-81.070,3695.615,3851.340,6796.808,-187500.016,-187500.016,-187500.016,-187500.016][-80.578,3693.022,3821.321,6739.721,-187500.016,-187500.016,-187500.016,-187500.016][-83.238,3690.183,3809.050,6808.877,-187500.016,-187500.016,-187500.016,-187500.016][-95.017,3675.387,3819.175,6894.730,-187500.016,-187500.016,-187500.016,-187500.016][-119.872,3639.400,3784.687,6871.910,-187500.016,-187500.016,-187500.016,-187500.016][-138.223,3654.309,3850.758,6667.279,-187500.016,-187500.016,-187500.016,-187500.016][-106.953,3675.141,3835.358,6761.805,-187500.016,-187500.016,-187500.016,-187500.016][-102.013,3665.306,3823.758,6854.363,-187500.016,-187500.016,-187500.016,-187500.016][-32.589,3725.142,3849.283,6913.014,-187500.016,-187500.016,-187500.016,-187500.016][-78.656,3717.676,3844.902,6780.714,-187500.016,-187500.016,-187500.016,-187500.016][-80.198,3709.741,3827.624,6753.713,-187500.016,-187500.016,-187500.016,-187500.016][-122.979,3666.938,3818.661,6859.616,-187500.016,-187500.016,-187500.016,-187500.016][-126.086,3666.669,3832.341,6905.124,-187500.016,-187500.016,-187500.016,-187500.016][-85.473,3697.224,3798.612,6802.038,-187500.016,-187500.016,-187500.016,-187500.016][-106.037,3685.333,3812.448,6729.797,-187500.016,-187500.016,-187500.016,-187500.016][-116.408,3672.928,3831.603,6857.157,-187500.016,-187500.016,-187500.016,-187500.016][-106.864,3682.740,3814.415,6851.949,-187500.016,-187500.016,-187500.016,-187500.016][-110.440,3678.896,3785.625,6775.864,-187500.016,-187500.016,-187500.016,-187500.016][-81.450,3715.709,3817.365,6729.283,-187500.016,-187500.016,-187500.016,-187500.016][-101.723,3697.604,3836.431,6824.636,-187500.016,-187500.016,-187500.016,-187500.016][-118.107,3674.470,3818.013,6880.224,-187500.016,-187500.016,-187500.016,-187500.016][-100.940,3693.872,3821.723,6819.540,-187500.016,-187500.016,-187500.016,-187500.016][-102.885,3689.356,3800.959,6735.877,-187500.016,-187500.016,-187500.016,-187500.016][-124.879,3669.910,3846.422,6819.964,-187500.016,-187500.016,-187500.016,-187500.016][-196.025,3588.416,3802.188,6891.400,-187500.016,-187500.016,-187500.016,-187500.016][-140.905,3643.356,3775.053,6834.806,-187500.016,-187500.016,-187500.016,-187500.016][-54.695,3744.923,3894.098,6701.008,-187500.016,-187500.016,-187500.016,-187500.016][-104.696,3700.555,3861.174,6769.337,-187500.016,-187500.016,-187500.016,-187500.016][-101.611,3708.333,3798.746,6877.743,-187500.016,-187500']
INDEX_b'4.008275508880615'___FLEX_[b'291,398,401,390,407\n292,398,401,391,407\n291,399,400,390,406\n292,398,400,390,407\n291,398,401,391,406\n291,399,401,391,406\n291,398,400,391,406\n291,398,401,390,407\n291,398,401,391,406\n292,399,401,391,407\n291,398,401,390,406\n292,398,401,391,406\n291,399,401,392,406\n291,398,400,391,406\n291,398,400,391,406\n292,399,401,391,407\n291,398,401,391,405\n292,399,400,390,406\n292,398,400,391,406\n292,399,401,391,406\n291,399,401,391,407\n292,398,400,391,406\n292,398,401,391,407\n292,398,401,391,407\n291,398,401,391,406\n292,399,400,391,407\n291,399,401,391,406\n292,399,401,391,406\n291,399,400,391,406\n292,397,400,391,407\n291,398,401,391,407\n292,398,401,390,407\n291,399,401,391,407\n291,399,400,390,406\n291,399,401,390,406\n292,399,401,391,407\n292,398,401,391,406\n292,398,401,391,407\n292,399,401,391,407\n292,397,401,391,406\n291,399,401,391,406\n292,399,400,391,407\n292,398,400,391,407\n292,398,401,391,407\n291,398,401,390,406\n292,398,401,391,406\n292,398,401,391,407\n292,398,401,391,406\n292,399,400,391,407\n292,399,400,391,407\n', b'291,398,400,391,407\n292,399,401,391,407\n292,399,401,391,406\n292,398,401,391,407\n292,399,401,391,407\n292,399,400,390,406\n292,398,401,391,407\n292,398,401,391,407\n291,398,401,391,406\n291,399,401,392,407\n292,398,401,391,407\n292,399,401,391,407\n292,399,400,391,406\n292,398,401,391,407\n291,399,401,391,405\n291,398,401,391,407\n292,398,401,391,407\n291,398,401,390,406\n292,398,401,391,407\n292,398,401,391,407\n292,399,401,391,407\n292,399,401,391,407\n292,398,401,391,407\n292,397,400,391,407\n292,398,401,391,407\n292,399,401,391,407\n291,398,401,391,407\n292,398,400,391,407\n291,399,401,391,407\n291,398,401,391,407\n291,398,401,391,407\n292,398,400,391,407\n292,399,401,391,407\n292,398,400,391,406\n292,398,401,391,407\n292,398,401,391,407\n292,398,401,391,406\n291,400,401,391,407\n292,398,401,391,407\n292,398,401,391,407\n292,398,401,391,407\n292,399,401,392,407\n292,399,400,391,407\n292,398,401,391,406\n292,399,400,391,407\n292,398,401,391,407\n292,399,401,391,407\n292,398,400,391,407\n292,398,401,391,407\n293,399,401,391,407\n', b'291,400,400,390,407\n292,399,400,390,406\n292,399,401,391,407\n292,399,401,391,407\n292,399,401,391,407\n292,399,401,391,407\n293,398,401,391,406\n292,399,400,391,407\n292,399,400,391,406\n291,399,401,391,407\n292,399,401,391,408\n293,398,400,390,406\n292,398,401,390,407\n292,398,401,391,407\n292,398,401,391,407\n292,398,401,391,407\n292,399,401,391,407\n292,399,400,391,407\n292,399,401,391,407\n292,399,401,391,407\n292,398,400,390,407\n292,399,402,391,407\n293,399,401,391,407\n292,398,400,391,407\n292,399,401,391,407\n292,399,401,390,407\n292,398,400,391,406\n292,398,401,391,407\n292,399,400,390,406\n292,399,401,390,407\n292,399,400,391,407\n292,399,401,391,406\n291,399,400,391,407\n292,398,401,391,407\n292,399,401,391,407\n293,399,401,390,407\n292,399,401,391,407\n292,399,400,391,407\n292,398,400,391,407\n292,399,401,390,407\n292,398,401,391,407\n293,399,401,391,407\n292,398,401,391,407\n293,398,400,392,407\n292,398,401,391,407\n292,399,401,390,407\n292,399,401,391,407\n292,398,401,390,406\n291,399,401,391,407\n292,398,401,391,407\n', b'292,398,401,391,407\n293,398,401,391,407\n292,398,401,391,407\n292,398,401,391,407\n292,398,401,390,407\n291,399,401,391,407\n291,399,401,391,407\n292,399,401,391,407\n292,398,401,391,407\n292,398,401,391,406\n292,398,401,391,407\n292,399,401,391,407\n292,399,401,391,406\n293,399,401,391,407\n292,399,401,391,406\n292,398,402,391,406\n292,399,401,391,407\n292,399,401,391,407\n292,398,401,391,407\n292,399,401,391,408\n292,398,400,391,407\n293,399,401,391,407\n291,398,401,390,407\n292,398,401,391,407\n292,398,401,391,407\n292,398,400,391,407\n292,399,400,391,407\n292,399,401,391,407\n290,399,400,391,407\n292,398,400,391,407\n292,399,400,391,407\n292,399,401,391,406\n291,399,401,391,407\n292,399,401,390,407\n292,399,401,391,407\n292,399,401,391,407\n292,398,400,391,407\n293,399,401,391,406\n292,398,401,390,408\n293,399,400,391,407\n292,398,400,391,407\n292,399,401,391,406\n292,398,400,391,407\n292,398,401,391,406\n292,399,401,391,407\n292,399,401,391,407\n292,399,401,391,406\n293,399,401,391,407\n292,398,401,392,407\n292,398,401,390,407\n']___EMG_[b'.016,-187500.016,-187500.016][-92.357,3706.724,3823.579,6857.716,-187500.016,-187500.016,-187500.016,-187500.016][-100.181,3697.113,3799.707,6758.117,-187500.016,-187500.016,-187500.016,-187500.016][-107.601,3693.156,3812.000,6781.407,-187500.016,-187500.016,-187500.016,-187500.016][-122.555,3678.493,3827.490,6867.640,-187500.016,-187500.016,-187500.016,-187500.016][-134.401,3670.961,3846.511,6847.591,-187500.016,-187500.016,-187500.016,-187500.016][-206.865,3600.128,3803.999,6711.021,-187500.016,-187500.016,-187500.016,-187500.016][-268.690,3519.818,3669.396,6714.933,-187500.016,-187500.016,-187500.016,-187500.016][-24.006,3777.132,3854.447,6928.169,-187500.016,-187500.016,-187500.016,-187500.016][-58.897,3755.495,3884.599,6903.761,-187500.016,-187500.016,-187500.016,-187500.016][-95.107,3714.100,3797.517,6751.813,-187500.016,-187500.016,-187500.016,-187500.016][-107.311,3697.828,3797.695,6742.001,-187500.016,-187500.016,-187500.016,-187500.016][-117.145,3684.707,3846.579,6847.412,-187500.016,-187500.016,-187500.016,-187500.016][-107.780,3698.543,3853.932,6894.798,-187500.016,-187500.016,-187500.016,-187500.016][-89.720,3708.244,3827.065,6797.679,-187500.016,-187500.016,-187500.016,-187500.016][-84.244,3707.461,3819.555,6758.229,-187500.016,-187500.016,-187500.016,-187500.016][-150.472,3654.130,3799.707,6878.816,-187500.016,-187500.016,-187500.016,-187500.016][-185.788,3586.851,3726.818,6944.665,-187500.016,-187500.016,-187500.016,-187500.016][-128.880,3688.999,3849.663,6779.932,-187500.016,-187500.016,-187500.016,-187500.016][-67.636,3748.700,3875.144,6680.735,-187500.016,-187500.016,-187500.016,-187500.016][-107.355,3712.021,3820.427,6769.516,-187500.016,-187500.016,-187500.016,-187500.016][-150.450,3670.536,3820.762,6855.995,-187500.016,-187500.016,-187500.016,-187500.016][-155.948,3655.181,3795.393,6788.627,-187500.016,-187500.016,-187500.016,-187500.016][-102.729,3712.803,3827.289,6752.551,-187500.016,-187500.016,-187500.016,-187500.016][-103.936,3707.618,3823.892,6804.608,-187500.016,-187500.016,-187500.016,-187500.016][-121.012,3688.462,3838.353,6884.583,-187500.016,-187500.016,-187500.016,-187500.016][-122.085,3684.864,3832.564,6851.011,-187500.016,-187500.016,-187500.016,-187500.016][-116.654,3688.820,3830.575,6756.753,-187500.016,-187500.016,-187500.016,-187500.016][-115.179,3689.915,3839.493,6773.316,-187500.016,-187500.016,-187500.016,-187500.016][-144.415,3661.148,3843.673,6872.245,-187500.016,-187500.016,-187500.016,-187500.016][-237.979,3561.303,3755.697,6829.732,-187500.016,-187500.016,-187500.016,-187500.016][-211.962,3579.207,3647.067,6749.534,-187500.016,-187500.016,-187500.016,-187500.016][-62.227,3756.747,3841.616,6762.833,-187500.016,-187500.016,-187500.016,-187500.016][-116.475,3688.664,3773.198,6844.551,-187500.016,-187500.016,-187500.016,-187500.016][-132.121,3681.176,3783.256,6829.083,-187500.016,-187500.016,-187500.016,-187500.016][-75.862,3742.218,3882.833,6797.009,-187500.016,-187500.016,-187500.016,-187500.016][-89.340,3718.972,3848.322,6772.511,-187500.016,-187500.016,-187500.016,-187500.016][-134.580,3665.999,3817.857,6874.212,-187500.016,-187500.016,-187500.016,-187500.016][-180.289,3622.167,3777.735,6878.123,-187500.016,-187500.016,-187500.016,-187500.016][-106.931,3706.120,3838.711,6788.336,-187500.016,-187500.016,-187500.016,-187500.016][-72.442,3738.687,3847.070,6740.235,-187500.016,-187500.016,-187500.016,-187500.016][-107.378,3693.916,3830.642,6828.815,-187500.016,-187500.016,-187500.016,-187500.016][-141.576,3655.136,3826.484,6889.053,-187500.016,-187500.016,-187500.016,-187500.016][-125.393,3680.684,3808.402,6808.431,-187500.016,-187500.016,-187500.016,-187500.016][-133.909,3679.634,3793.180,6725.483,-187500.016,-187500.016,-187500.016,-187500.016][-130.132,3681.712,3818.929,6775.462,-187500.016,-187500.016,-187500.016,-187500.016][-102.438,3699.236,3831.648,6892.697,-187500.016,-187500.016,-187500.016,-187500.016][-132.702,3687.591,3794.857,6825.574,-187500.016,-187500.016,-187500.016,-187500.016][-133.038,3675.364,3759.876,6777.898,-187500.016,-187500.016,-187500.016,-187500.01', b'6][-149.556,3654.600,3752.366,6786.079,-187500.016,-187500.016,-187500.016,-187500.016][-132.434,3685.110,3824.048,6844.797,-187500.016,-187500.016,-187500.016,-187500.016][-111.133,3707.439,3839.985,6843.612,-187500.016,-187500.016,-187500.016,-187500.016][-98.951,3714.055,3825.747,6766.722,-187500.016,-187500.016,-187500.016,-187500.016][-102.505,3713.496,3823.690,6783.486,-187500.016,-187500.016,-187500.016,-187500.016][-115.223,3690.742,3837.884,6884.583,-187500.016,-187500.016,-187500.016,-187500.016][-129.953,3683.701,3822.349,6863.863,-187500.016,-187500.016,-187500.016,-187500.016][-132.792,3672.123,3777.422,6746.807,-187500.016,-187500.016,-187500.016,-187500.016][-150.137,3652.230,3768.817,6745.242,-187500.016,-187500.016,-187500.016,-187500.016][-151.187,3656.678,3778.987,6903.738,-187500.016,-187500.016,-187500.016,-187500.016][-118.062,3684.171,3833.391,6908.320,-187500.016,-187500.016,-187500.016,-187500.016][-109.054,3688.261,3801.473,6772.310,-187500.016,-187500.016,-187500.016,-187500.016][-167.213,3656.611,3822.841,6718.577,-187500.016,-187500.016,-187500.016,-187500.016][-130.937,3689.468,3851.921,6850.720,-187500.016,-187500.016,-187500.016,-187500.016][-113.994,3711.351,3839.046,6902.509,-187500.016,-187500.016,-187500.016,-187500.016][-96.358,3715.776,3784.843,6805.592,-187500.016,-187500.016,-187500.016,-187500.016][-123.113,3681.802,3742.732,6713.346,-187500.016,-187500.016,-187500.016,-187500.016][-141.621,3678.158,3793.829,6809.458,-187500.016,-187500.016,-187500.016,-187500.016][-124.522,3690.675,3830.374,6915.563,-187500.016,-187500.016,-187500.016,-187500.016][-148.840,3654.443,3761.083,6865.427,-187500.016,-187500.016,-187500.016,-187500.016][-170.030,3653.393,3752.120,6680.400,-187500.016,-187500.016,-187500.016,-187500.016][-91.843,3726.125,3868.327,6809.056,-187500.016,-187500.016,-187500.016,-187500.016][-98.571,3717.609,3850.736,6900.900,-187500.016,-187500.016,-187500.016,-187500.016][-126.489,3682.651,3783.234,6823.317,-187500.016,-187500.016,-187500.016,-187500.016][-109.792,3690.496,3771.164,6739.386,-187500.016,-187500.016,-187500.016,-187500.016][-97.118,3700.152,3805.742,6801.144,-187500.016,-187500.016,-187500.016,-187500.016][-125.416,3681.757,3823.914,6886.192,-187500.016,-187500.016,-187500.016,-187500.016][-148.013,3672.727,3790.587,6844.305,-187500.016,-187500.016,-187500.016,-187500.016][-128.277,3691.390,3781.691,6751.210,-187500.016,-187500.016,-187500.016,-187500.016][-117.660,3708.110,3814.191,6771.550,-187500.016,-187500.016,-187500.016,-187500.016][-123.471,3690.407,3824.339,6893.121,-187500.016,-187500.016,-187500.016,-187500.016][-155.345,3645.882,3762.313,6892.585,-187500.016,-187500.016,-187500.016,-187500.016][-125.282,3678.583,3792.957,6758.273,-187500.016,-187500.016,-187500.016,-187500.016][-105.657,3703.684,3819.041,6758.229,-187500.016,-187500.016,-187500.016,-187500.016][-121.817,3698.677,3828.161,6872.580,-187500.016,-187500.016,-187500.016,-187500.016][-183.642,3635.913,3789.135,6880.202,-187500.016,-187500.016,-187500.016,-187500.016][-150.338,3665.306,3754.378,6773.450,-187500.016,-187500.016,-187500.016,-187500.016][-136.614,3685.445,3781.803,6700.695,-187500.016,-187500.016,-187500.016,-187500.016][-143.029,3672.347,3805.742,6821.931,-187500.016,-187500.016,-187500.016,-187500.016][-143.811,3668.502,3833.369,6879.062,-187500.016,-187500.016,-187500.016,-187500.016][-125.527,3681.533,3804.557,6825.217,-187500.016,-187500.016,-187500.016,-187500.016][-141.352,3666.647,3742.263,6742.761,-187500.016,-187500.016,-187500.016,-187500.016][-111.960,3699.594,3788.039,6819.383,-187500.016,-187500.016,-187500.016,-187500.016][-109.948,3716.112,3851.071,6898.821,-187500.016,-187500.016,-187500.016,-187500.016][-136.413,3678.672,3815.621,6853.626,-187500.016,-187500.016,-187500.016,-187500.016][-115.469,3690.116,3793.851,6743.700,-187500.016,-187500.016,-187500.016,-187500.016][-100.896,3707.998,3793.292,6788.314,-187500.016,-187500.016,-187500.016,-187500.016][-115.760,3706.858,3838.666,6907.382,-187500.016,-187500.016,-187500.016,-187500.016][-132.255,3692.284,']
