INDEX_b'0.4010312557220459'___FLEX_[]___EMG_[b'[-2230.413,2327.644,2665.535,7517.651,-187500.016,-187500.016,-187500.016,-187500.016][-2220.556,2332.069,2672.777,7528.425,-187500.016,-187500.016,-187500.016,-187500.016][-2207.033,2347.693,2666.876,7422.902,-187500.016,-187500.016,-187500.016,-187500.016][-2215.259,2342.373,2670.966,7406.094,-187500.016,-187500.016,-187500.016,-187500.016][-2215.326,2330.661,2693.340,7528.492,-187500.016,-187500.016,-187500.016,-187500.016][-2227.150,2319.798,2690.233,7571.117,-187500.016,-187500.016,-187500.016,-187500.016][-2230.749,2324.313,2677.225,7442.750,-187500.016,-187500.016,-187500.016,-187500.016][-2217.271,2336.562,2684.891,7390.649,-187500.016,-187500.016,-187500.016,-187500.016][-2216.041,2336.204,2719.157,7505.604,-187500.016,-187500.016,-187500.016,-187500.016][-2227.262,2323.710,2703.801,7559.539,-187500.016,-187500.016,-187500.016,-187500.016][-2218.612,2330.013,2665.915,7469.417,-187500.016,-187500.016,-187500.016,-187500.016][-2210.386,2331.711,2671.659,7398.494,-187500.016,-187500.016,-187500.016,-187500.016][-2223.127,2324.872,2710.596,7475.407,-187500.016,-187500.016,-187500.016,-187500.016][-2229.475,2322.346,2699.219,7573.396,-187500.016,-187500.016,-187500.016,-187500.016][-2220.176,2334.125,2680.756,7482.380,-187500.016,-187500.016,-187500.016,-187500.016][-2214.901,2337.836,2678.834,7376.657,-187500.016,-187500.016,-187500.016,-187500.016][-2213.694,2332.918,2676.934,7458.106,-187500.016,-187500.016,-187500.016,-187500.016][-2217.561,2327.286,2692.871,7568.032,-187500.016,-187500.016,-187500.016,-187500.016][-2219.573,2326.437,2661.958,7501.871,-187500.016,-187500.016,-187500.016,-187500.016][-2215.304,2330.035,2664.395,7407.256,-187500.016,-187500.016,-187500.016,-187500.016][-2224.312,2324.492,2692.625,7429.340,-187500.016,-187500.016,-187500.016,-187500.016][-2214.499,2329.298,2716.631,7552.565,-187500.016,-187500.016,-187500.016,-187500.016][-2218.209,2321.474,2672.486,7525.407,-187500.016,-187500.016,-187500.016,-187500.016][-2217.382,2332.583,2666.943,7411.056,-187500.016,-187500.016,-187500.016,-187500.016][-2211.817,2345.503,2684.646,7434.525,-187500.016,-187500.016,-187500.016,-187500.016][-2228.268,2321.966,2690.077,7547.491,-187500.016,-187500.016,-187500.016,-187500.016][-2240.919,2311.863,2684.802,7532.046,-187500.016,-187500.016,-187500.016,-187500.016][-2216.757,2340.451,2662.584,7419.840,-187500.016,-187500.016,-187500.016,-187500.016][-2207.369,2340.138,2670.631,7403.523,-187500.016,-187500.016,-187500.016,-187500.016][-2211.258,2329.096,2694.592,7512.891,-187500.016,-187500.016,-187500.016,-187500.016][-2227.329,2319.530,2698.481,7545.591,-187500.016,-187500.016,-187500.016,-187500.016][-2224.378,2329.454,2688.222,7447.176,-187500.016,-187500.016,-187500.016,-187500.016][-2224.088,2319.351,2659.209,7403.546,-187500.016,-187500.016,-187500.016,-187500.016][-2210.185,2327.688,2712.943,7533.923,-187500.016,-187500.016,-187500.016,-187500.016][-2217.248,2313.271,2714.709,7564.277,-187500.016,-187500.016,-187500.016,-187500.016][-2215.304,2324.157,2662.584,7466.242,-187500.016,-187500.016,-187500.016,-187500.016][-2196.998,2341.971,2653.018,7397.600,-187500.016,-187500.016,-187500.016,-187500.016][-2219.193,2333.209,2709.300,7479.519,-187500.016,-187500.016,-187500.016,-187500.016][-2221.696,2321.944,2722.420,7564.076,-187500.016,-187500.016,-187500.016,-187500.016][-2210.163,2330.460,2667.614,7494.182,-187500.016,-187500.016,-187500.016,-187500.016][-2213.940,2332.270,2647.966,7407.278,-187500.016,-187500.016,-187500.016,-187500.016][-2218.746,2325.654,2693.452,7472.456,-187500.016,-187500.016,-187500.016,-187500.016][-2223.417,2320.960,2704.203,7556.722,-187500.016,-187500.016,-187500.016,-187500.016][-2224.155,2319.977,2673.447,7503.547,-187500.016,-187500.016,-187500.016,-187500.016][-2221.294,2322.324,2663.970,7406.943,-187500.016,-187500.016,-187500.016,-187500.016][-2221.741,2325.990,2707.713,7439.063,-187500.016,-187500.016,-187500.016,-187500.016][-2223.127,2321.989,2703.287,7530.213,-187500.016,-187500.016,-187500.016,-187500.016][-2208.151,2324.939,2675.459,7533.745,-187500.016,-187', b'500.016,-187500.016,-187500.016][-2204.195,2341.390,2663.076,7436.135,-187500.016,-187500.016,-187500.016,-187500.016][-2226.547,2324.894,2671.816,7430.703,-187500.016,-187500.016,-187500.016,-187500.016][-2235.666,2316.155,2692.066,7521.161,-187500.016,-187500.016,-187500.016,-187500.016][-2218.992,2326.504,2699.554,7536.807,-187500.016,-187500.016,-187500.016,-187500.016][-2210.565,2337.702,2689.429,7445.656,-187500.016,-187500.016,-187500.016,-187500.016][-2225.027,2321.027,2674.945,7428.781,-187500.016,-187500.016,-187500.016,-187500.016][-2220.512,2325.073,2685.227,7508.465,-187500.016,-187500.016,-187500.016,-187500.016][-2219.573,2325.408,2703.533,7549.637,-187500.016,-187500.016,-187500.016,-187500.016][-2215.550,2328.538,2677.895,7459.760,-187500.016,-187500.016,-187500.016,-187500.016][-2213.247,2337.635,2688.646,7399.589,-187500.016,-187500.016,-187500.016,-187500.016][-2229.385,2316.512,2721.302,7497.937,-187500.016,-187500.016,-187500.016,-187500.016][-2225.362,2313.629,2732.411,7580.996,-187500.016,-187500.016,-187500.016,-187500.016][-2217.204,2328.493,2665.088,7462.666,-187500.016,-187500.016,-187500.016,-187500.016][-2216.600,2331.198,2667.770,7390.247,-187500.016,-187500.016,-187500.016,-187500.016][-2217.539,2322.458,2714.597,7481.151,-187500.016,-187500.016,-187500.016,-187500.016][-2223.261,2313.584,2682.388,7572.972,-187500.016,-187500.016,-187500.016,-187500.016][-2226.882,2328.739,2655.946,7491.723,-187500.016,-187500.016,-187500.016,-187500.016][-2201.334,2347.581,2657.309,7423.908,-187500.016,-187500.016,-187500.016,-187500.016][-2216.689,2331.600,2680.712,7469.796,-187500.016,-187500.016,-187500.016,-187500.016][-2214.119,2317.608,2699.152,7580.862,-187500.016,-187500.016,-187500.016,-187500.016][-2200.417,2334.595,2679.169,7517.271,-187500.016,-187500.016,-187500.016,-187500.016][-2209.403,2340.809,2670.050,7409.402,-187500.016,-187500.016,-187500.016,-187500.016][-2217.338,2325.475,2690.390,7445.098,-187500.016,-187500.016,-187500.016,-187500.016][-2221.450,2317.406,2699.599,7556.700,-187500.016,-187500.016,-187500.016,-187500.016][-2233.163,2304.711,2697.163,7544.854,-187500.016,-187500.016,-187500.016,-187500.016][-2220.333,2316.646,2677.806,7435.844,-187500.016,-187500.016,-187500.016,-187500.016][-2197.311,2346.933,2680.622,7443.041,-187500.016,-187500.016,-187500.016,-187500.016][-2218.589,2327.711,2701.611,7537.611,-187500.016,-187500.016,-187500.016,-187500.016][-2227.441,2316.043,2697.252,7543.333,-187500.016,-187500.016,-187500.016,-187500.016][-2215.527,2327.934,2678.812,7430.703,-187500.016,-187500.016,-187500.016,-187500.016][-2204.530,2339.423,2687.350,7418.566,-187500.016,-187500.016,-187500.016,-187500.016][-2218.634,2315.618,2720.051,7523.753,-187500.016,-187500.016,-187500.016,-187500.016][-2218.656,2316.602,2726.130,7567.607,-187500.016,-187500.016,-187500.016,-187500.016][-2216.019,2323.821,2728.768,7461.213,-187500.016,-187500.016,-187500.016,-187500.016][-2207.033,2338.529,2658.919,7408.128,-187500.016,-187500.016,-187500.016,-187500.016][-2229.095,2315.082,2655.678,7498.183,-187500.016,-187500.016,-187500.016,-187500.016][-2226.725,2311.193,2659.857,7563.204,-187500.016,-187500.016,-187500.016,-187500.016][-2197.311,2336.227,2656.795,7488.706,-187500.016,-187500.016,-187500.016,-187500.016][-2196.953,2345.123,2672.375,7415.660,-187500.016,-187500.016,-187500.016,-187500.016][-2216.980,2332.159,2700.806,7490.494,-187500.016,-187500.016,-187500.016,-187500.016][-2221.070,2317.518,2707.377,7582.471,-187500.016,-187500.016,-187500.016,-187500.016][-2226.725,2314.098,2690.546,7509.403,-187500.016,-187500.016,-187500.016,-187500.016][-2216.645,2331.130,2670.720,7419.393,-187500.016,-187500.016,-187500.016,-187500.016][-2210.431,2330.639,2683.103,7465.617,-187500.016,-187500.016,-187500.016,-187500.016][-2213.225,2317.250,2700.046,7583.991,-187500.016,-187500.016,-187500.016,-187500.016][-2210.140,2322.413,2697.095,7523.284,-187500.016,-187500.016,-187500.016,-187500.016][-2203.345,2338.909,2680.287,7404.574,-187500.016,-187500.016,-187500.016,-187500.016][-2215.639,2329.387,26']
INDEX_b'0.801886796951294'___FLEX_[]___EMG_[b'95.017,7446.193,-187500.016,-187500.016,-187500.016,-187500.016][-2230.615,2307.795,2707.981,7552.989,-187500.016,-187500.016,-187500.016,-187500.016][-2227.284,2307.929,2691.195,7518.076,-187500.016,-187500.016,-187500.016,-187500.016][-2234.079,2310.366,2674.476,7413.269,-187500.016,-187500.016,-187500.016,-187500.016][-2203.636,2331.198,2680.488,7445.232,-187500.016,-187500.016,-187500.016,-187500.016][-2202.138,2324.022,2713.010,7563.629,-187500.016,-187500.016,-187500.016,-187500.016][-2198.383,2331.577,2724.588,7575.855,-187500.016,-187500.016,-187500.016,-187500.016][-2200.663,2333.880,2677.538,7476.010,-187500.016,-187500.016,-187500.016,-187500.016][-2214.387,2325.788,2683.796,7434.101,-187500.016,-187500.016,-187500.016,-187500.016][-2231.375,2310.656,2685.897,7509.448,-187500.016,-187500.016,-187500.016,-187500.016][-2219.551,2312.243,2686.456,7597.089,-187500.016,-187500.016,-187500.016,-187500.016][-2206.698,2335.578,2678.298,7467.002,-187500.016,-187500.016,-187500.016,-187500.016][-2206.341,2337.612,2674.453,7403.836,-187500.016,-187500.016,-187500.016,-187500.016][-2206.698,2328.739,2688.378,7507.280,-187500.016,-187500.016,-187500.016,-187500.016][-2201.334,2322.771,2696.023,7584.014,-187500.016,-187500.016,-187500.016,-187500.016][-2200.820,2320.737,2678.030,7503.436,-187500.016,-187500.016,-187500.016,-187500.016][-2210.096,2319.910,2668.888,7422.634,-187500.016,-187500.016,-187500.016,-187500.016][-2206.832,2328.538,2690.792,7483.386,-187500.016,-187500.016,-187500.016,-187500.016][-2215.214,2315.708,2699.733,7559.539,-187500.016,-187500.016,-187500.016,-187500.016][-2232.425,2307.572,2707.154,7490.159,-187500.016,-187500.016,-187500.016,-187500.016][-2227.307,2319.865,2686.858,7407.413,-187500.016,-187500.016,-187500.016,-187500.016][-2215.997,2322.994,2690.837,7488.907,-187500.016,-187500.016,-187500.016,-187500.016][-2234.549,2301.671,2706.327,7589.244,-187500.016,-187500.016,-187500.016,-187500.016][-2216.578,2316.781,2670.832,7551.179,-187500.016,-187500.016,-187500.016,-187500.016][-2202.384,2332.807,2670.944,7426.993,-187500.016,-187500.016,-187500.016,-187500.016][-2208.956,2327.442,2717.838,7444.382,-187500.016,-187500.016,-187500.016,-187500.016][-2212.286,2315.819,2720.632,7568.077,-187500.016,-187500.016,-187500.016,-187500.016][-2210.274,2321.743,2669.469,7562.467,-187500.016,-187500.016,-187500.016,-187500.016][-2203.971,2330.862,2691.440,7437.900,-187500.016,-187500.016,-187500.016,-187500.016][-2224.535,2316.445,2702.862,7420.600,-187500.016,-187500.016,-187500.016,-187500.016][-2238.661,2299.458,2684.489,7547.334,-187500.016,-187500.016,-187500.016,-187500.016][-2215.192,2318.345,2674.900,7566.602,-187500.016,-187500.016,-187500.016,-187500.016][-2193.891,2332.092,2678.164,7475.563,-187500.016,-187500.016,-187500.016,-187500.016][-2190.784,2333.768,2711.333,7456.854,-187500.016,-187500.016,-187500.016,-187500.016][-2210.342,2326.012,2726.086,7532.493,-187500.016,-187500.016,-187500.016,-187500.016][-2208.688,2326.615,2699.063,7567.652,-187500.016,-187500.016,-187500.016,-187500.016][-2206.520,2324.581,2676.867,7471.584,-187500.016,-187500.016,-187500.016,-187500.016][-2210.230,2321.206,2681.718,7431.039,-187500.016,-187500.016,-187500.016,-187500.016][-2208.196,2328.404,2705.477,7535.667,-187500.016,-187500.016,-187500.016,-187500.016][-2214.700,2317.719,2686.210,7617.966,-187500.016,-187500.016,-187500.016,-187500.016][-2231.419,2305.515,2659.768,7497.758,-187500.016,-187500.016,-187500.016,-187500.016][-2209.738,2328.851,2676.487,7429.541,-187500.016,-187500.016,-187500.016,-187500.016][-2197.668,2338.864,2710.328,7517.093,-187500.016,-187500.016,-187500.016,-187500.016][-2204.888,2322.257,2727.762,7585.466,-187500.016,-187500.016,-187500.016,-187500.016][-2212.867,2321.743,2694.615,7512.332,-187500.016,-187500.016,-187500.016,-187500.016][-2216.399,2321.743,2693.854,7406.116,-187500.016,-187500.016,-187500.016,-187500.016][-2213.001,2324.760,2693.340,7477.552,-187500.016,-187500.016,-187500.016,-187500.016][-2217.494,2312.020,2715.938,7584.572,-187500.016,-187500.016,-187500.016,-1', b'87500.016][-2231.911,2313.696,2674.878,7543.758,-187500.016,-187500.016,-187500.016,-187500.016][-2226.413,2320.021,2648.905,7425.629,-187500.016,-187500.016,-187500.016,-187500.016][-2218.388,2322.480,2685.338,7469.483,-187500.016,-187500.016,-187500.016,-187500.016][-2223.082,2311.416,2711.132,7594.184,-187500.016,-187500.016,-187500.016,-187500.016][-2215.460,2312.534,2689.027,7560.924,-187500.016,-187500.016,-187500.016,-187500.016][-2223.104,2315.484,2669.670,7433.162,-187500.016,-187500.016,-187500.016,-187500.016][-2210.342,2323.933,2703.175,7464.946,-187500.016,-187500.016,-187500.016,-187500.016][-2205.357,2320.647,2724.320,7578.649,-187500.016,-187500.016,-187500.016,-187500.016][-2226.927,2304.264,2713.949,7582.963,-187500.016,-187500.016,-187500.016,-187500.016][-2249.211,2289.668,2664.887,7438.728,-187500.016,-187500.016,-187500.016,-187500.016][-2199.121,2336.115,2665.848,7442.013,-187500.016,-187500.016,-187500.016,-187500.016][-2210.297,2312.802,2686.188,7568.881,-187500.016,-187500.016,-187500.016,-187500.016][-2210.632,2312.646,2709.232,7602.968,-187500.016,-187500.016,-187500.016,-187500.016][-2218.299,2321.564,2696.023,7485.577,-187500.016,-187500.016,-187500.016,-187500.016][-2219.998,2318.524,2675.817,7418.946,-187500.016,-187500.016,-187500.016,-187500.016][-2217.785,2315.372,2691.910,7533.968,-187500.016,-187500.016,-187500.016,-187500.016][-2233.096,2304.867,2701.007,7592.150,-187500.016,-187500.016,-187500.016,-187500.016][-2239.868,2304.107,2677.426,7470.981,-187500.016,-187500.016,-187500.016,-187500.016][-2215.863,2322.525,2709.031,7449.769,-187500.016,-187500.016,-187500.016,-187500.016][-2205.178,2328.917,2723.202,7510.812,-187500.016,-187500.016,-187500.016,-187500.016][-2207.190,2320.156,2664.171,7597.089,-187500.016,-187500.016,-187500.016,-187500.016][-2212.733,2316.267,2664.060,7521.876,-187500.016,-187500.016,-187500.016,-187500.016][-2214.924,2322.883,2683.014,7423.796,-187500.016,-187500.016,-187500.016,-187500.016][-2215.416,2319.753,2725.438,7486.828,-187500.016,-187500.016,-187500.016,-187500.016][-2213.225,2316.512,2694.637,7603.303,-187500.016,-187500.016,-187500.016,-187500.016][-2210.342,2315.484,2686.389,7558.778,-187500.016,-187500.016,-187500.016,-187500.016][-2210.968,2325.274,2665.110,7453.927,-187500.016,-187500.016,-187500.016,-187500.016][-2211.862,2324.715,2676.353,7476.971,-187500.016,-187500.016,-187500.016,-187500.016][-2217.673,2311.282,2703.130,7600.062,-187500.016,-187500.016,-187500.016,-187500.016][-2229.788,2297.670,2690.099,7563.562,-187500.016,-187500.016,-187500.016,-187500.016][-2228.670,2287.165,2671.145,7448.406,-187500.016,-187500.016,-187500.016,-187500.016][-2212.331,2301.269,2672.978,7470.467,-187500.016,-187500.016,-187500.016,-187500.016][-2215.639,2331.577,2699.264,7571.497,-187500.016,-187500.016,-187500.016,-187500.016][-2228.670,2317.116,2704.203,7579.767,-187500.016,-187500.016,-187500.016,-187500.016][-2216.220,2325.542,2672.553,7460.096,-187500.016,-187500.016,-187500.016,-187500.016][-2213.471,2333.321,2672.956,7427.216,-187500.016,-187500.016,-187500.016,-187500.016][-2220.892,2318.859,2710.730,7547.804,-187500.016,-187500.016,-187500.016,-187500.016][-2247.423,2291.903,2688.602,7585.377,-187500.016,-187500.016,-187500.016,-187500.016][-2227.463,2309.561,2709.523,7494.070,-187500.016,-187500.016,-187500.016,-187500.016][-2199.501,2329.052,2703.779,7455.782,-187500.016,-187500.016,-187500.016,-187500.016][-2209.045,2328.560,2669.558,7538.304,-187500.016,-187500.016,-187500.016,-187500.016][-2224.378,2310.857,2692.245,7606.813,-187500.016,-187500.016,-187500.016,-187500.016][-2225.474,2303.548,2690.993,7534.840,-187500.016,-187500.016,-187500.016,-187500.016][-2222.054,2306.677,2689.809,7440.046,-187500.016,-187500.016,-187500.016,-187500.016][-2222.568,2305.873,2693.184,7516.467,-187500.016,-187500.016,-187500.016,-187500.016][-2211.057,2311.081,2692.223,7627.376,-187500.016,-187500.016,-187500.016,-187500.016][-2211.928,2314.389,2673.224,7549.793,-187500.016,-187500.016,-187500.016,-187500.016][-2210.297,2324.671,2671.972,7437.453,-18750']
INDEX_b'1.202843189239502'___FLEX_[b'\xac\x13']___EMG_[b'0.016,-187500.016,-187500.016,-187500.016][-2209.291,2328.895,2697.163,7472.255,-187500.016,-187500.016,-187500.016,-187500.016][-2219.640,2310.231,2690.278,7585.265,-187500.016,-187500.016,-187500.016,-187500.016][-2221.026,2306.365,2675.817,7547.111,-187500.016,-187500.016,-187500.016,-187500.016][-2221.965,2305.739,2673.917,7451.378,-187500.016,-187500.016,-187500.016,-187500.016][-2213.851,2312.601,2705.947,7464.812,-187500.016,-187500.016,-187500.016,-187500.016][-2226.994,2308.086,2685.987,7573.352,-187500.016,-187500.016,-187500.016,-187500.016][-2222.009,2317.339,2691.038,7573.307,-187500.016,-187500.016,-187500.016,-187500.016][-2219.170,2321.273,2684.064,7457.503,-187500.016,-187500.016,-187500.016,-187500.016][-2218.992,2311.684,2690.345,7446.573,-187500.016,-187500.016,-187500.016,-187500.016][-2232.984,2295.032,2700.627,7553.280,-187500.016,-187500.016,-187500.016,-187500.016][-2243.780,2283.678,2696.157,7583.410,-187500.016,-187500.016,-187500.016,-187500.016][-2219.774,2306.409,2693.117,7520.646,-187500.016,-187500.016,-187500.016,-187500.016][-2193.421,2328.761,2689.004,7444.271,-187500.016,-187500.016,-187500.016,-187500.016][-2194.561,2327.800,2723.538,7548.542,-187500.016,-187500.016,-187500.016,-187500.016][-2212.554,2305.538,2709.121,7613.853,-187500.016,-187500.016,-187500.016,-187500.016][-2212.621,2315.819,2673.582,7501.334,-187500.016,-187500.016,-187500.016,-187500.016][-2206.162,2323.598,2644.055,7428.893,-187500.016,-187500.016,-187500.016,-187500.016][-2216.265,2307.125,2680.667,7518.702,-187500.016,-187500.016,-187500.016,-187500.016][-2228.178,2295.390,2685.450,7580.817,-187500.016,-187500.016,-187500.016,-187500.016][-2224.960,2309.293,2683.103,7521.474,-187500.016,-187500.016,-187500.016,-187500.016][-2203.971,2317.094,2678.275,7460.409,-187500.016,-187500.016,-187500.016,-187500.016][-2196.752,2316.669,2696.358,7536.539,-187500.016,-187500.016,-187500.016,-187500.016][-2226.927,2304.375,2703.689,7597.089,-187500.016,-187500.016,-187500.016,-187500.016][-2225.854,2304.264,2710.618,7529.051,-187500.016,-187500.016,-187500.016,-187500.016][-2215.103,2316.736,2680.600,7442.125,-187500.016,-187500.016,-187500.016,-187500.016][-2212.688,2316.244,2686.680,7502.653,-187500.016,-187500.016,-187500.016,-187500.016][-2237.097,2286.874,2711.915,7606.231,-187500.016,-187500.016,-187500.016,-187500.016][-2232.448,2299.503,2694.257,7574.581,-187500.016,-187500.016,-187500.016,-187500.016][-2200.395,2330.594,2675.101,7453.591,-187500.016,-187500.016,-187500.016,-187500.016][-2215.863,2310.612,2681.181,7464.186,-187500.016,-187500.016,-187500.016,-187500.016][-2222.792,2300.084,2699.778,7583.187,-187500.016,-187500.016,-187500.016,-187500.016][-2231.017,2297.804,2721.504,7603.952,-187500.016,-187500.016,-187500.016,-187500.016][-2228.424,2291.992,2725.639,7458.218,-187500.016,-187500.016,-187500.016,-187500.016][-2213.828,2317.205,2660.282,7440.918,-187500.016,-187500.016,-187500.016,-187500.016][-2202.697,2325.788,2717.033,7574.246,-187500.016,-187500.016,-187500.016,-187500.016][-2208.933,2319.686,2691.239,7588.864,-187500.016,-187500.016,-187500.016,-187500.016][-2216.466,2319.910,2653.443,7478.536,-187500.016,-187500.016,-187500.016,-187500.016][-2208.397,2316.401,2662.003,7450.395,-187500.016,-187500.016,-187500.016,-187500.016][-2211.102,2310.455,2695.665,7551.961,-187500.016,-187500.016,-187500.016,-187500.016][-2231.732,2295.949,2713.748,7603.996,-187500.016,-187500.016,-187500.016,-187500.016][-2225.451,2306.812,2686.210,7511.192,-187500.016,-187500.016,-187500.016,-187500.016][-2201.647,2321.921,2676.174,7440.314,-187500.016,-187500.016,-187500.016,-187500.016][-2212.130,2310.299,2699.219,7531.331,-187500.016,-187500.016,-187500.016,-187500.016][-2229.586,2300.039,2707.109,7605.918,-187500.016,-187500.016,-187500.016,-187500.016][-2226.010,2302.811,2697.095,7526.659,-187500.016,-187500.016,-187500.016,-187500.016][-2233.409,2310.299,2698.146,7449.993,-187500.016,-187500.016,-187500.016,-187500.016][-2234.079,2304.085,2689.608,7515.617,-187500.016,-187500.016,-187500.016,-187500.016][-2223.037,2', b'302.163,2695.062,7616.334,-187500.016,-187500.016,-187500.016,-187500.016][-2205.089,2312.578,2695.352,7541.322,-187500.016,-187500.016,-187500.016,-187500.016][-2221.629,2303.370,2679.952,7437.386,-187500.016,-187500.016,-187500.016,-187500.016][-2235.890,2289.579,2707.042,7526.749,-187500.016,-187500.016,-187500.016,-187500.016][-2222.255,2305.828,2718.777,7622.101,-187500.016,-187500.016,-187500.016,-187500.016][-2228.178,2306.320,2685.473,7532.851,-187500.016,-187500.016,-187500.016,-187500.016][-2208.688,2322.436,2687.261,7427.551,-187500.016,-187500.016,-187500.016,-187500.016][-2218.522,2310.433,2704.047,7454.709,-187500.016,-187500.016,-187500.016,-187500.016][-2229.251,2299.324,2700.560,7573.173,-187500.016,-187500.016,-187500.016,-187500.016][-2216.891,2307.907,2707.511,7585.042,-187500.016,-187500.016,-187500.016,-187500.016][-2212.688,2303.213,2678.924,7473.976,-187500.016,-187500.016,-187500.016,-187500.016][-2193.734,2324.604,2663.680,7472.076,-187500.016,-187500.016,-187500.016,-187500.016][-2214.320,2311.595,2695.307,7587.747,-187500.016,-187500.016,-187500.016,-187500.016][-2212.867,2310.030,2714.083,7609.227,-187500.016,-187500.016,-187500.016,-187500.016][-2215.237,2319.642,2675.504,7488.304,-187500.016,-187500.016,-187500.016,-187500.016][-2214.588,2319.843,2682.880,7448.428,-187500.016,-187500.016,-187500.016,-187500.016][-2214.186,2309.069,2699.823,7552.006,-187500.016,-187500.016,-187500.016,-187500.016][-2219.685,2297.893,2700.940,7603.571,-187500.016,-187500.016,-187500.016,-187500.016][-2221.696,2300.531,2683.550,7501.446,-187500.016,-187500.016,-187500.016,-187500.016][-2219.081,2311.751,2680.555,7459.582,-187500.016,-187500.016,-187500.016,-187500.016][-2226.345,2298.094,2722.733,7561.908,-187500.016,-187500.016,-187500.016,-187500.016][-2223.037,2300.285,2708.763,7607.394,-187500.016,-187500.016,-187500.016,-187500.016][-2206.631,2313.316,2669.178,7513.628,-187500.016,-187500.016,-187500.016,-187500.016][-2211.817,2312.914,2682.075,7430.301,-187500.016,-187500.016,-187500.016,-187500.016][-2219.394,2306.901,2707.824,7500.172,-187500.016,-187500.016,-187500.016,-187500.016][-2213.046,2301.313,2717.793,7614.323,-187500.016,-187500.016,-187500.016,-187500.016][-2223.820,2291.590,2697.766,7571.452,-187500.016,-187500.016,-187500.016,-187500.016][-2215.639,2294.228,2681.047,7459.760,-187500.016,-187500.016,-187500.016,-187500.016][-2207.659,2317.138,2690.502,7502.363,-187500.016,-187500.016,-187500.016,-187500.016][-2217.919,2306.767,2708.294,7593.938,-187500.016,-187500.016,-187500.016,-187500.016][-2213.448,2312.534,2687.820,7538.751,-187500.016,-187500.016,-187500.016,-187500.016][-2214.678,2313.093,2683.685,7437.409,-187500.016,-187500.016,-187500.016,-187500.016][-2224.200,2306.253,2707.444,7466.063,-187500.016,-187500.016,-187500.016,-187500.016][-2232.693,2281.197,2689.027,7576.347,-187500.016,-187500.016,-187500.016,-187500.016][-2236.381,2278.850,2676.308,7572.614,-187500.016,-187500.016,-187500.016,-187500.016][-2215.482,2298.631,2667.837,7450.127,-187500.016,-187500.016,-187500.016,-187500.016][-2198.428,2328.247,2685.316,7459.626,-187500.016,-187500.016,-187500.016,-187500.016][-2216.868,2303.101,2719.179,7567.652,-187500.016,-187500.016,-187500.016,-187500.016][-2221.093,2303.012,2704.762,7591.390,-187500.016,-187500.016,-187500.016,-187500.016][-2203.815,2319.329,2684.914,7484.705,-187500.016,-187500.016,-187500.016,-187500.016][-2222.903,2301.291,2702.013,7433.140,-187500.016,-187500.016,-187500.016,-187500.016][-2240.583,2280.660,2720.632,7533.096,-187500.016,-187500.016,-187500.016,-187500.016][-2213.471,2302.699,2696.984,7625.364,-187500.016,-187500.016,-187500.016,-187500.016][-2203.569,2317.518,2675.772,7517.383,-187500.016,-187500.016,-187500.016,-187500.016][-2196.193,2318.055,2682.366,7458.978,-187500.016,-187500.016,-187500.016,-187500.016][-2206.721,2305.091,2719.112,7547.401,-187500.016,-187500.016,-187500.016,-187500.016][-2212.107,2291.143,2704.226,7610.545,-187500.016,-187500.016,-187500.016,-187500.016][-2214.164,2286.337,2695.330,7525.899,-187500.016,-187500.016,-187']
INDEX_b'1.6029107570648193'___FLEX_[b'333,396,398,295,397\n334,397,397,294,399\n334,397,398,294,400\n334,397,397,293,399\n335,396,397,292,399\n334,397,397,291,400\n335,396,398,291,400\n335,396,397,290,400\n334,397,397,289,399\n334,397,397,288,400\n335,396,398,288,399\n335,395,397,287,399\n334,397,396,286,399\n334,396,397,286,399\n335,397,396,285,400\n334,397,397,284,400\n334,396,397,284,399\n334,397,395,284,399\n334,397,396,283,399\n334,397,396,282,399\n334,397,396,281,399\n335,396,395,280,399\n334,396,396,280,398\n334,396,396,279,399\n334,397,395,278,400\n335,397,394,277,399\n334,397,396,277,398\n334,397,395,276,399\n334,396,394,274,399\n335,397,395,274,399\n334,397,394,273,399\n334,396,395,273,400\n334,397,395,271,400\n333,397,394,271,399\n334,397,394,270,400\n334,397,394,270,399\n334,397,394,269,400\n334,397,393,269,399\n333,397,394,268,399\n334,396,394,267,399\n334,397,393,266,399\n333,397,393,266,399\n334,397,393,264,400\n334,398,393,261,399\n333,397,393,262,399\n335,396,393,261,400\n333,397,392,260,399\n334,397,393,259,399\n333,397,392,257,399\n334,397,392,257,399\n']___EMG_[b'500.016,-187500.016][-2235.040,2289.467,2700.404,7465.728,-187500.016,-187500.016,-187500.016,-187500.016][-2232.961,2306.454,2694.346,7500.105,-187500.016,-187500.016,-187500.016,-187500.016][-2216.511,2306.521,2692.133,7571.474,-187500.016,-187500.016,-187500.016,-187500.016][-2208.330,2307.236,2680.443,7523.463,-187500.016,-187500.016,-187500.016,-187500.016][-2206.430,2308.645,2675.347,7426.747,-187500.016,-187500.016,-187500.016,-187500.016][-2238.415,2289.847,2688.959,7465.214,-187500.016,-187500.016,-187500.016,-187500.016][-2247.758,2275.028,2708.182,7569.686,-187500.016,-187500.016,-187500.016,-187500.016][-2245.702,2274.804,2712.719,7565.529,-187500.016,-187500.016,-187500.016,-187500.016][-2240.069,2284.750,2661.958,7426.590,-187500.016,-187500.016,-187500.016,-187500.016][-2197.601,2325.878,2672.531,7455.268,-187500.016,-187500.016,-187500.016,-187500.016][-2195.925,2327.465,2735.429,7592.887,-187500.016,-187500.016,-187500.016,-187500.016][-2210.900,2299.436,2719.358,7582.784,-187500.016,-187500.016,-187500.016,-187500.016][-2204.173,2301.626,2651.207,7470.444,-187500.016,-187500.016,-187500.016,-187500.016][-2208.621,2323.956,2680.220,7456.743,-187500.016,-187500.016,-187500.016,-187500.016][-2224.021,2307.326,2710.663,7564.098,-187500.016,-187500.016,-187500.016,-187500.016][-2224.893,2297.379,2711.848,7582.941,-187500.016,-187500.016,-187500.016,-187500.016][-2217.941,2307.192,2690.748,7474.378,-187500.016,-187500.016,-187500.016,-187500.016][-2221.540,2306.543,2676.375,7430.122,-187500.016,-187500.016,-187500.016,-187500.016][-2235.353,2286.762,2709.121,7521.406,-187500.016,-187500.016,-187500.016,-187500.016][-2223.194,2288.729,2721.079,7597.626,-187500.016,-187500.016,-187500.016,-187500.016][-2226.681,2298.653,2691.105,7503.860,-187500.016,-187500.016,-187500.016,-187500.016][-2220.467,2301.581,2664.708,7436.224,-187500.016,-187500.016,-187500.016,-187500.016][-2211.370,2303.615,2699.219,7553.190,-187500.016,-187500.016,-187500.016,-187500.016][-2215.125,2304.420,2706.729,7592.083,-187500.016,-187500.016,-187500.016,-187500.016][-2220.824,2304.889,2687.864,7522.770,-187500.016,-187500.016,-187500.016,-187500.016][-2211.169,2288.662,2682.679,7456.430,-187500.016,-187500.016,-187500.016,-187500.016][-2224.244,2269.060,2704.896,7491.478,-187500.016,-187500.016,-187500.016,-187500.016][-2254.866,2262.108,2732.747,7609.584,-187500.016,-187500.016,-187500.016,-187500.016][-2236.046,2288.550,2708.495,7517.227,-187500.016,-187500.016,-187500.016,-187500.016][-2191.790,2324.671,2668.150,7410.676,-187500.016,-187500.016,-187500.016,-187500.016][-2209.939,2313.383,2685.026,7473.931,-187500.016,-187500.016,-187500.016,-187500.016][-2220.556,2294.071,2707.646,7586.003,-187500.016,-187500.016,-187500.016,-187500.016][-2217.092,2297.089,2699.599,7554.979,-187500.016,-187500.016,-187500.016,-187500.016][-2218.142,2302.431,2698.682,7457.011,-187500.016,-187500.016,-187500.016,-187500.016][-2248.272,2274.871,2665.758,7470.958,-187500.016,-187500.016,-187500.016,-187500.016][-2236.381,2280.683,2693.899,7587.567,-187500.016,-187500.016,-187500.016,-187500.016][-2215.706,2307.438,2759.390,7567.764,-187500.016,-187500.016,-187500.016,-187500.016][-2219.998,2306.543,2680.980,7432.134,-187500.016,-187500.016,-187500.016,-187500.016][-2216.980,2305.873,2661.176,7430.390,-187500.016,-187500.016,-187500.016,-187500.016][-2238.348,2282.426,2720.900,7560.276,-187500.016,-187500.016,-187500.016,-187500.016][-2256.274,2262.421,2719.201,7604.398,-187500.016,-187500.016,-187500.016,-187500.016][-2234.549,2282.113,2651.386,7470.020,-187500.016,-187500.016,-187500.016,-187500.016][-2191.991,2318.546,2680.287,7420.466,-187500.016,-187500.016,-187500.016,-187500.016][-2213.560,2285.756,2696.492,7525.877,-187500.016,-187500.016,-187500.016,-187500.016][-2222.479,2285.622,2692.133,7577.576,-187500.016,-187500.016,-187500.016,-187500.016][-2215.661,2317.541,2692.178,7494.495,-187500.016,-187500.016,-187500.016,-187500.016][-2226.055,2282.404,2658.941,7426.657,-187500.016,-187500.016,-187500.016,-187500.016][-2271.518,2245.948,2636.388,7502.', b'698,-187500.016,-187500.016,-187500.016,-187500.016][-2218.880,2305.046,2727.986,7574.291,-187500.016,-187500.016,-187500.016,-187500.016][-2209.358,2296.284,2693.318,7504.821,-187500.016,-187500.016,-187500.016,-187500.016][-2205.826,2281.979,2704.807,7425.249,-187500.016,-187500.016,-187500.016,-187500.016][-2222.121,2312.824,2728.723,7486.985,-187500.016,-187500.016,-187500.016,-187500.016][-2266.221,2296.329,2692.424,7562.556,-187500.016,-187500.016,-187500.016,-187500.016][-2263.472,2274.335,2660.595,7509.359,-187500.016,-187500.016,-187500.016,-187500.016][-2226.032,2277.062,2697.364,7440.404,-187500.016,-187500.016,-187500.016,-187500.016][-2205.826,2295.099,2704.092,7484.727,-187500.016,-187500.016,-187500.016,-187500.016][-2226.345,2274.603,2705.097,7560.254,-187500.016,-187500.016,-187500.016,-187500.016][-2249.345,2272.748,2691.083,7517.562,-187500.016,-187500.016,-187500.016,-187500.016][-2234.817,2304.264,2689.004,7452.429,-187500.016,-187500.016,-187500.016,-187500.016][-2229.966,2272.189,2700.381,7487.253,-187500.016,-187500.016,-187500.016,-187500.016][-2233.476,2251.692,2718.039,7555.515,-187500.016,-187500.016,-187500.016,-187500.016][-2202.295,2274.424,2708.540,7561.997,-187500.016,-187500.016,-187500.016,-187500.016][-2205.826,2297.111,2691.619,7459.984,-187500.016,-187500.016,-187500.016,-187500.016][-2219.819,2287.165,2683.751,7454.262,-187500.016,-187500.016,-187500.016,-187500.016][-2246.596,2272.077,2704.226,7579.566,-187500.016,-187500.016,-187500.016,-187500.016][-2255.358,2258.934,2695.307,7613.987,-187500.016,-187500.016,-187500.016,-187500.016][-2210.006,2301.961,2677.739,7429.250,-187500.016,-187500.016,-187500.016,-187500.016][-2204.932,2331.890,2694.078,7398.740,-187500.016,-187500.016,-187500.016,-187500.016][-2232.805,2297.268,2721.057,7493.601,-187500.016,-187500.016,-187500.016,-187500.016][-2255.984,2249.547,2691.217,7527.531,-187500.016,-187500.016,-187500.016,-187500.016][-2244.205,2267.003,2645.172,7456.944,-187500.016,-187500.016,-187500.016,-187500.016][-2245.590,2282.851,2626.620,7410.854,-187500.016,-187500.016,-187500.016,-187500.016][-2233.140,2265.372,2664.149,7546.530,-187500.016,-187500.016,-187500.016,-187500.016][-2220.646,2279.274,2697.990,7575.498,-187500.016,-187500.016,-187500.016,-187500.016][-2215.169,2306.611,2705.857,7493.780,-187500.016,-187500.016,-187500.016,-187500.016][-2206.028,2315.104,2684.735,7433.385,-187500.016,-187500.016,-187500.016,-187500.016][-2217.047,2289.288,2716.989,7483.006,-187500.016,-187500.016,-187500.016,-187500.016][-2247.691,2261.840,2770.230,7567.228,-187500.016,-187500.016,-187500.016,-187500.016][-2354.130,2178.826,2685.182,7463.314,-187500.016,-187500.016,-187500.016,-187500.016][-2238.997,2277.598,2594.836,7351.287,-187500.016,-187500.016,-187500.016,-187500.016][-2137.229,2358.087,2735.898,7495.836,-187500.016,-187500.016,-187500.016,-187500.016][-2209.559,2299.637,2747.275,7576.503,-187500.016,-187500.016,-187500.016,-187500.016][-2247.937,2320.647,2719.604,7523.195,-187500.016,-187500.016,-187500.016,-187500.016][-2214.052,2343.625,2686.814,7443.220,-187500.016,-187500.016,-187500.016,-187500.016][-2276.615,2179.563,2671.838,7529.677,-187500.016,-187500.016,-187500.016,-187500.016][-2260.946,2216.868,2705.321,7514.679,-187500.016,-187500.016,-187500.016,-187500.016][-2192.527,2323.821,2692.737,7458.688,-187500.016,-187500.016,-187500.016,-187500.016][-2184.749,2322.681,2685.361,7443.354,-187500.016,-187500.016,-187500.016,-187500.016][-2209.380,2283.655,2705.433,7512.287,-187500.016,-187500.016,-187500.016,-187500.016][-2252.653,2243.892,2725.482,7539.198,-187500.016,-187500.016,-187500.016,-187500.016][-2291.143,2216.265,2688.512,7482.022,-187500.016,-187500.016,-187500.016,-187500.016][-2260.790,2258.443,2645.284,7370.331,-187500.016,-187500.016,-187500.016,-187500.016][-2205.760,2311.327,2730.690,7482.537,-187500.016,-187500.016,-187500.016,-187500.016][-2198.540,2325.878,2720.341,7582.807,-187500.016,-187500.016,-187500.016,-187500.016][-2230.905,2279.453,2669.759,7468.969,-187500.016,-187500.016,-187500.016,-187500.016][-']
INDEX_b'2.0037384033203125'___FLEX_[b'333,397,392,256,400\n333,396,391,254,399\n333,397,392,254,400\n333,396,391,252,399\n333,397,392,251,400\n333,397,392,250,400\n333,396,391,250,399\n333,397,390,249,399\n333,396,392,248,399\n333,396,391,247,400\n334,396,391,247,400\n334,398,391,246,400\n332,396,391,246,400\n333,396,391,245,400\n332,397,391,245,400\n333,397,391,244,400\n333,397,391,243,400\n333,397,391,243,400\n331,397,391,243,400\n333,396,391,241,400\n332,398,390,242,400\n332,397,391,239,400\n333,396,391,240,400\n331,397,391,240,400\n332,397,390,239,400\n332,397,391,239,400\n332,394,391,239,401\n332,397,391,237,400\n331,397,391,238,401\n332,396,391,237,400\n331,397,391,237,401\n332,397,390,237,400\n332,397,390,235,401\n331,396,391,237,401\n331,396,390,235,400\n331,396,389,236,401\n331,397,390,235,401\n332,398,391,235,401\n331,397,391,234,401\n331,397,390,235,401\n331,396,390,234,402\n331,396,390,233,401\n330,396,390,233,401\n331,397,390,233,401\n331,397,390,233,402\n331,396,391,233,402\n331,397,391,233,401\n330,397,391,231,402\n330,397,390,232,403\n331,396,391,231,403\n', b'330,396,390,231,402\n330,396,390,231,403\n330,396,390,230,402\n330,397,390,229,403\n330,397,390,228,403\n329,397,390,229,403\n330,395,390,227,403\n331,397,390,228,403\n330,397,389,227,403\n330,396,390,226,403\n330,396,390,227,403\n330,396,390,227,404\n330,397,390,227,404\n330,397,391,226,404\n330,397,392,225,403\n330,397,390,225,403\n330,397,390,225,404\n330,396,390,225,404\n330,397,391,225,404\n330,397,390,225,404\n330,397,390,224,404\n329,396,390,225,404\n329,396,390,224,404\n329,397,390,224,404\n329,397,390,224,404\n329,396,390,224,405\n328,396,389,223,404\n329,396,390,224,405\n329,396,389,223,404\n329,396,390,223,404\n329,397,390,223,405\n330,396,390,224,405\n329,397,390,223,405\n329,396,390,224,405\n328,397,389,224,405\n328,397,390,223,405\n329,397,390,223,404\n329,396,389,223,406\n328,397,390,223,406\n329,397,390,222,406\n328,397,390,223,405\n330,397,390,222,406\n328,397,389,221,405\n328,396,391,222,406\n328,397,390,222,407\n328,396,389,221,405\n327,397,389,221,405\n328,397,390,221,406\n327,397,389,220,406\n328,397,389,220,404\n', b'327,397,390,221,406\n327,397,390,221,406\n327,397,389,220,405\n327,397,390,221,406\n328,396,389,220,406\n327,397,389,220,406\n327,397,389,221,406\n327,397,390,220,406\n327,397,389,220,407\n327,397,390,219,407\n327,397,388,219,406\n327,397,390,219,406\n327,397,389,219,407\n326,397,389,219,407\n326,396,389,219,407\n326,397,390,219,407\n326,397,389,219,406\n326,396,389,218,407\n325,397,389,218,407\n326,396,388,219,407\n326,397,388,219,408\n326,397,388,217,407\n326,397,389,218,407\n325,397,389,217,407\n325,397,388,217,407\n325,396,388,217,406\n326,397,388,218,407\n325,397,388,217,407\n325,397,388,218,406\n325,397,388,218,407\n325,396,388,218,407\n325,397,388,217,407\n325,397,388,217,408\n325,397,388,217,407\n325,397,388,217,408\n326,397,388,217,407\n325,397,388,217,407\n325,397,388,218,408\n324,396,387,218,406\n325,397,388,217,408\n324,397,388,217,408\n325,397,388,217,408\n325,398,388,218,407\n324,397,388,218,407\n324,398,388,218,408\n324,397,388,217,408\n324,396,388,217,407\n323,397,388,217,407\n323,397,388,217,408\n324,396,388,217,408\n', b'323,398,388,217,408\n324,397,388,217,408\n324,397,389,217,407\n324,397,388,217,408\n323,398,388,217,408\n323,397,388,217,409\n323,397,388,217,409\n324,397,387,217,408\n323,397,388,217,407\n323,397,388,217,407\n323,397,387,217,409\n322,397,388,217,408\n323,397,388,216,408\n323,397,387,216,409\n323,397,388,217,408\n323,397,388,217,408\n323,398,388,217,409\n322,397,388,217,408\n322,397,387,217,408\n322,397,388,216,409\n321,397,388,216,409\n321,397,388,216,409\n322,397,388,218,409\n322,398,389,217,409\n322,397,388,217,409\n322,397,388,217,408\n322,396,388,216,409\n321,397,388,217,408\n321,397,387,216,409\n321,397,388,216,409\n321,397,387,216,409\n322,397,388,217,409\n321,397,388,216,409\n321,397,388,216,409\n321,397,389,216,408\n321,397,388,217,408\n321,397,388,217,408\n321,398,388,216,409\n322,397,388,216,408\n322,397,388,216,408\n321,397,387,216,409\n321,397,389,217,408\n320,398,388,216,409\n321,397,389,216,409\n320,397,388,215,408\n321,397,388,216,409\n321,397,388,216,408\n321,397,388,217,408\n320,398,388,216,409\n321,397,387,216,408\n', b'320,397,388,216,409\n320,397,388,217,409\n321,397,388,216,408\n320,397,388,217,409\n320,397,388,216,409\n321,397,388,217,409\n320,397,388,217,408\n320,398,388,216,409\n320,398,388,216,409\n321,397,388,215,409\n320,397,389,217,408\n320,397,390,217,409\n319,398,388,217,408\n320,398,388,217,408\n320,398,388,216,409\n320,397,388,216,409\n320,398,388,217,410\n320,397,388,217,408\n319,397,388,217,409\n320,397,388,216,408\n319,398,388,217,409\n319,397,389,217,409\n320,397,388,217,409\n319,397,389,217,409\n320,397,388,218,409\n320,398,388,217,409\n320,398,389,217,409\n320,398,388,217,409\n319,398,388,217,410\n320,396,389,217,409\n318,398,388,216,409\n319,398,389,217,409\n320,397,388,217,409\n319,398,389,217,410\n319,398,388,217,410\n319,398,388,217,409\n319,399,388,216,409\n319,398,388,217,409\n319,399,389,217,409\n319,398,388,217,409\n318,397,388,217,409\n319,398,388,217,410\n318,398,388,217,409\n318,398,388,217,410\n318,398,389,217,410\n319,397,388,217,410\n318,397,388,217,409\n319,398,389,217,410\n318,397,389,217,409\n319,398,388,216,409\n']___EMG_[b'2252.877,2245.456,2671.279,7380.501,-187500.016,-187500.016,-187500.016,-187500.016][-2265.908,2239.421,2706.304,7499.658,-187500.016,-187500.016,-187500.016,-187500.016][-2250.150,2264.925,2704.002,7533.990,-187500.016,-187500.016,-187500.016,-187500.016][-2229.743,2259.068,2676.353,7462.711,-187500.016,-187500.016,-187500.016,-187500.016][-2202.496,2270.624,2695.375,7403.747,-187500.016,-187500.016,-187500.016,-187500.016][-2217.315,2284.438,2725.661,7462.398,-187500.016,-187500.016,-187500.016,-187500.016][-2262.265,2339.512,2710.060,7539.579,-187500.016,-187500.016,-187500.016,-187500.016][-2246.887,2283.499,2690.546,7479.318,-187500.016,-187500.016,-187500.016,-187500.016][-2256.654,2270.110,2661.646,7339.150,-187500.016,-187500.016,-187500.016,-187500.016][-2202.161,2457.820,2688.982,7454.396,-187500.016,-187500.016,-187500.016,-187500.016][-2274.916,2287.142,2693.117,7518.076,-187500.016,-187500.016,-187500.016,-187500.016][-2293.602,2102.718,2664.239,7463.784,-187500.016,-187500.016,-187500.016,-187500.016][-2231.196,2236.650,2668.955,7406.876,-187500.016,-187500.016,-187500.016,-187500.016][-2234.236,2288.215,2716.050,7499.100,-187500.016,-187500.016,-187500.016,-187500.016][-2215.192,2252.139,2730.109,7563.316,-187500.016,-187500.016,-187500.016,-187500.016][-2222.255,2259.471,2699.823,7526.838,-187500.016,-187500.016,-187500.016,-187500.016][-2229.631,2279.453,2688.311,7437.051,-187500.016,-187500.016,-187500.016,-187500.016][-2218.925,2262.779,2709.992,7399.634,-187500.016,-187500.016,-187500.016,-187500.016][-2228.379,2211.951,2745.889,7535.019,-187500.016,-187500.016,-187500.016,-187500.016][-2267.808,2268.836,2716.385,7613.965,-187500.016,-187500.016,-187500.016,-187500.016][-2338.417,2241.098,2624.497,7344.783,-187500.016,-187500.016,-187500.016,-187500.016][-2244.160,2244.428,2658.203,7307.858,-187500.016,-187500.016,-187500.016,-187500.016][-2210.230,2264.925,2716.050,7481.821,-187500.016,-187500.016,-187500.016,-187500.016][-2263.181,2266.355,2736.435,7492.908,-187500.016,-187500.016,-187500.016,-187500.016][-2277.017,2282.404,2713.323,7462.577,-187500.016,-187500.016,-187500.016,-187500.016][-2253.860,2279.453,2666.116,7490.449,-187500.016,-187500.016,-187500.016,-187500.016][-2217.092,2264.097,2657.041,7444.002,-187500.016,-187500.016,-187500.016,-187500.016][-2199.121,2278.693,2717.950,7521.496,-187500.016,-187500.016,-187500.016,-187500.016][-2199.479,2334.483,2719.000,7467.919,-187500.016,-187500.016,-187500.016,-187500.016][-2230.413,2347.581,2694.346,7372.208,-187500.016,-187500.016,-187500.016,-187500.016][-2244.205,2229.899,2699.599,7459.850,-187500.016,-187500.016,-187500.016,-187500.016][-2241.925,2249.569,2735.362,7582.203,-187500.016,-187500.016,-187500.016,-187500.016][-2245.613,2310.857,2694.369,7470.579,-187500.016,-187500.016,-187500.016,-187500.016][-2205.424,2389.267,2660.997,7339.955,-187500.016,-187500.016,-187500.016,-187500.016][-2276.123,2313.719,2697.029,7383.407,-187500.016,-187500.016,-187500.016,-187500.016][-2391.748,2063.111,2712.585,7491.992,-187500.016,-187500.016,-187500.016,-187500.016][-2304.979,2121.382,2674.207,7489.823,-187500.016,-187500.016,-187500.016,-187500.016][-2190.091,2251.625,2700.270,7427.306,-187500.016,-187500.016,-187500.016,-187500.016][-2209.068,2258.666,2704.963,7454.575,-187500.016,-187500.016,-187500.016,-187500.016][-2264.679,2274.670,2691.776,7543.580,-187500.016,-187500.016,-187500.016,-187500.016][-2285.175,2231.509,2654.896,7450.551,-187500.016,-187500.016,-187500.016,-187500.016][-2225.272,2276.212,2693.586,7382.960,-187500.016,-187500.016,-187500.016,-187500.016][-2223.395,2273.798,2694.145,7411.883,-187500.016,-187500.016,-187500.016,-187500.016][-2273.888,2215.259,2731.338,7567.697,-187500.016,-187500.016,-187500.016,-187500.016][-2329.856,2145.097,2684.109,7630.103,-187500.016,-187500.016,-187500.016,-187500.016][-2233.856,2260.722,2661.623,7407.904,-187500.016,-187500.016,-187500.016,-187500.016][-2183.520,2345.123,2711.423,7333.071,-187500.016,-187500.016,-187500.016,-187500.016][-2179.563,2312.422,2746.113,7484.973,-187500.016,-18750', b'0.016,-187500.016,-187500.016][-2269.730,2229.229,2735.518,7504.956,-187500.016,-187500.016,-187500.016,-187500.016][-2319.709,2265.014,2621.591,7308.014,-187500.016,-187500.016,-187500.016,-187500.016][-2150.372,2495.080,2695.531,7405.110,-187500.016,-187500.016,-187500.016,-187500.016][-2185.218,2272.122,2706.125,7491.321,-187500.016,-187500.016,-187500.016,-187500.016][-2252.430,2139.062,2683.148,7556.074,-187500.016,-187500.016,-187500.016,-187500.016][-2279.140,2232.403,2691.955,7447.064,-187500.016,-187500.016,-187500.016,-187500.016][-2291.858,2197.512,2726.779,7352.740,-187500.016,-187500.016,-187500.016,-187500.016][-2338.082,2233.520,2653.733,7323.794,-187500.016,-187500.016,-187500.016,-187500.016][-2258.621,2356.902,2713.591,7526.838,-187500.016,-187500.016,-187500.016,-187500.016][-2252.564,2217.069,2732.948,7576.414,-187500.016,-187500.016,-187500.016,-187500.016][-2255.224,2185.866,2643.384,7431.798,-187500.016,-187500.016,-187500.016,-187500.016][-2267.942,2241.857,2661.266,7383.027,-187500.016,-187500.016,-187500.016,-187500.016][-2247.490,2287.209,2736.971,7448.070,-187500.016,-187500.016,-187500.016,-187500.016][-2226.703,2310.567,2708.696,7460.744,-187500.016,-187500.016,-187500.016,-187500.016][-2252.318,2291.836,2693.854,7407.681,-187500.016,-187500.016,-187500.016,-187500.016][-2319.373,2153.166,2658.986,7409.670,-187500.016,-187500.016,-187500.016,-187500.016][-2253.860,2156.854,2669.223,7503.614,-187500.016,-187500.016,-187500.016,-187500.016][-2234.325,2214.700,2737.776,7483.811,-187500.016,-187500.016,-187500.016,-187500.016][-2301.470,2248.630,2653.599,7385.508,-187500.016,-187500.016,-187500.016,-187500.016][-2355.829,2152.428,2557.844,7328.288,-187500.016,-187500.016,-187500.016,-187500.016][-2261.281,2184.816,2638.579,7494.182,-187500.016,-187500.016,-187500.016,-187500.016][-2165.459,2302.408,2772.063,7563.808,-187500.016,-187500.016,-187500.016,-187500.016][-2187.252,2299.167,2714.418,7478.424,-187500.016,-187500.016,-187500.016,-187500.016][-2215.147,2238.371,2680.667,7395.588,-187500.016,-187500.016,-187500.016,-187500.016][-2309.427,2233.006,2685.070,7456.184,-187500.016,-187500.016,-187500.016,-187500.016][-2282.381,2264.902,2723.627,7511.438,-187500.016,-187500.016,-187500.016,-187500.016][-2212.532,2319.999,2711.937,7385.418,-187500.016,-187500.016,-187500.016,-187500.016][-2256.878,2252.475,2660.260,7304.550,-187500.016,-187500.016,-187500.016,-187500.016][-2237.320,2293.937,2669.826,7433.363,-187500.016,-187500.016,-187500.016,-187500.016][-2269.462,2331.198,2765.000,7531.733,-187500.016,-187500.016,-187500.016,-187500.016][-2292.149,2246.373,2699.823,7440.024,-187500.016,-187500.016,-187500.016,-187500.016][-2299.547,2166.689,2675.794,7367.671,-187500.016,-187500.016,-187500.016,-187500.016][-2245.210,2217.807,2703.242,7469.014,-187500.016,-187500.016,-187500.016,-187500.016][-2203.860,2262.019,2731.853,7571.162,-187500.016,-187500.016,-187500.016,-187500.016][-2251.670,2237.007,2699.219,7472.903,-187500.016,-187500.016,-187500.016,-187500.016][-2251.447,2216.935,2711.982,7371.538,-187500.016,-187500.016,-187500.016,-187500.016][-2262.555,2270.378,2725.572,7429.675,-187500.016,-187500.016,-187500.016,-187500.016][-2267.495,2230.883,2689.317,7502.452,-187500.016,-187500.016,-187500.016,-187500.016][-2298.743,2152.451,2621.256,7475.898,-187500.016,-187500.016,-187500.016,-187500.016][-2292.127,2244.294,2670.117,7313.803,-187500.016,-187500.016,-187500.016,-187500.016][-2252.653,2339.736,2725.482,7348.091,-187500.016,-187500.016,-187500.016,-187500.016][-2259.359,2355.449,2716.720,7517.249,-187500.016,-187500.016,-187500.016,-187500.016][-2263.516,2201.714,2631.627,7589.289,-187500.016,-187500.016,-187500.016,-187500.016][-2303.012,2112.218,2587.773,7370.286,-187500.016,-187500.016,-187500.016,-187500.016][-2321.877,2130.702,2581.425,7371.516,-187500.016,-187500.016,-187500.016,-187500.016][-2219.864,2254.017,2772.376,7499.189,-187500.016,-187500.016,-187500.016,-187500.016][-2227.262,2214.521,2755.300,7490.829,-187500.016,-187500.016,-187500.016,-187500.016][-2254.866,2236.203,2714']
INDEX_b'2.4046969413757324'___FLEX_[b'318,397,388,217,409\n318,397,389,217,410\n318,398,388,216,409\n318,398,389,217,409\n318,398,389,217,409\n318,397,389,217,409\n318,397,390,217,410\n318,398,388,217,409\n319,398,388,217,410\n319,398,390,216,409\n318,398,388,217,410\n318,398,388,217,409\n318,397,389,217,409\n318,398,389,217,410\n318,398,388,217,409\n318,398,389,217,410\n317,398,389,217,410\n317,397,389,217,410\n317,398,388,217,409\n319,398,389,217,410\n318,398,389,218,409\n318,398,389,218,410\n318,398,388,217,410\n318,398,388,217,409\n318,398,388,217,410\n317,398,388,217,410\n318,398,389,217,410\n318,398,389,217,410\n317,398,389,218,410\n317,398,388,217,410\n318,398,388,218,410\n317,397,388,217,410\n318,398,389,218,410\n318,398,388,217,409\n318,398,389,218,410\n318,398,388,218,410\n318,398,388,217,410\n317,398,388,217,409\n317,398,389,217,409\n318,397,389,217,410\n318,398,389,217,409\n317,398,390,218,410\n317,398,389,218,410\n317,398,389,218,410\n318,398,389,217,410\n317,398,389,218,410\n317,398,389,218,410\n318,398,388,217,410\n317,398,389,218,410\n317,398,389,217,410\n', b'317,397,390,217,409\n317,398,388,217,410\n317,398,389,217,410\n317,398,389,218,410\n317,398,389,217,409\n318,398,390,218,410\n317,398,388,217,410\n317,398,389,218,410\n317,398,389,218,410\n317,398,389,218,410\n316,398,389,217,410\n317,398,388,218,411\n316,398,389,218,410\n317,398,388,218,410\n317,398,390,218,411\n317,398,388,217,410\n317,398,388,217,409\n316,398,389,218,410\n316,398,391,218,410\n317,398,389,218,412\n316,399,389,218,408\n317,398,389,219,409\n316,398,389,218,411\n316,399,389,218,411\n316,398,389,218,409\n317,398,389,218,409\n316,397,389,218,410\n316,398,389,217,410\n317,398,389,218,410\n317,397,389,217,410\n316,398,388,217,410\n317,398,389,219,410\n317,398,389,218,411\n316,398,388,218,410\n319,398,389,218,410\n316,398,388,218,410\n316,398,389,218,409\n316,398,389,217,410\n316,399,389,218,409\n316,398,389,218,410\n316,398,389,219,410\n316,398,388,218,409\n316,398,389,219,410\n317,398,390,219,410\n315,398,390,218,410\n316,399,388,218,410\n316,398,389,219,410\n317,398,387,218,409\n316,399,389,218,409\n314,398,389,218,409\n', b'316,398,389,218,409\n316,398,389,218,409\n316,398,388,218,409\n316,398,388,218,410\n317,398,389,217,410\n316,398,388,217,409\n316,398,388,218,409\n317,398,388,218,410\n316,399,389,218,410\n317,398,389,218,410\n316,398,389,218,409\n317,398,389,218,410\n316,398,389,218,409\n316,398,388,218,409\n315,397,389,218,409\n316,398,389,219,409\n315,398,389,219,409\n316,398,389,218,409\n315,398,389,218,410\n316,398,389,219,410\n316,397,389,219,410\n316,398,389,219,410\n315,398,389,219,409\n315,397,389,218,409\n315,398,389,219,409\n315,397,389,219,409\n315,397,388,219,409\n315,398,389,219,410\n316,398,389,219,410\n315,398,389,219,411\n315,398,389,219,409\n315,398,389,219,410\n315,397,388,220,410\n315,398,389,219,410\n315,396,389,219,409\n315,398,388,219,410\n315,397,389,220,410\n315,398,389,219,409\n315,398,388,219,410\n315,398,388,219,409\n314,398,388,219,409\n315,397,388,220,411\n315,398,389,220,410\n315,398,389,219,409\n315,398,388,220,409\n315,396,389,220,410\n315,397,389,219,410\n315,397,389,220,410\n314,397,389,219,407\n314,397,389,219,410\n', b'314,397,389,219,409\n314,397,389,220,410\n314,397,388,220,410\n315,397,388,220,410\n314,397,389,219,410\n314,397,388,220,409\n314,397,388,220,409\n314,397,388,220,410\n314,396,388,219,407\n314,397,389,219,409\n314,397,389,219,410\n315,396,390,221,409\n315,397,388,220,410\n316,397,390,220,408\n314,397,389,220,411\n315,397,389,219,410\n314,396,390,220,411\n314,397,389,220,410\n314,396,389,220,410\n314,397,389,220,410\n314,397,389,219,410\n315,396,389,220,410\n314,397,388,219,410\n314,397,389,220,410\n314,396,389,220,410\n314,397,389,219,410\n314,396,389,219,411\n315,397,389,219,409\n314,396,389,220,410\n314,396,389,220,410\n314,397,389,220,410\n314,396,389,220,410\n313,396,389,220,411\n313,397,388,220,410\n313,395,388,220,409\n314,397,390,220,409\n314,396,389,222,410\n314,396,389,220,409\n314,397,388,220,410\n314,397,389,220,411\n314,396,389,220,410\n314,396,389,220,410\n312,396,389,219,410\n314,396,389,221,410\n314,396,388,221,410\n314,395,389,220,410\n314,396,389,220,410\n314,395,389,221,410\n314,397,389,221,411\n314,396,389,221,411\n', b'314,397,388,221,411\n314,396,389,221,411\n314,397,389,220,411\n314,396,389,221,410\n314,397,388,221,410\n314,397,389,221,411\n314,396,389,221,410\n313,397,388,221,411\n313,396,388,221,410\n315,396,388,221,411\n313,396,389,221,408\n314,397,389,221,411\n314,396,389,221,410\n314,396,388,221,411\n314,397,389,221,410\n314,397,388,222,410\n314,396,388,222,410\n314,396,389,221,410\n314,396,389,221,411\n314,396,388,221,411\n314,396,389,221,411\n312,397,389,221,410\n314,397,388,221,410\n314,397,389,221,411\n313,396,389,221,410\n313,397,389,223,411\n314,397,389,221,410\n315,397,389,221,411\n314,396,389,222,410\n314,396,388,220,410\n314,396,388,221,411\n314,396,390,221,411\n314,396,389,221,411\n314,395,389,222,412\n313,396,389,221,411\n314,397,389,221,411\n314,396,389,221,410\n314,397,389,222,411\n314,397,389,222,411\n314,397,388,222,411\n313,397,389,222,412\n314,396,388,221,411\n314,396,389,222,411\n314,397,389,221,410\n314,397,389,221,411\n314,397,389,222,411\n314,396,390,222,411\n313,396,389,222,411\n314,397,388,222,411\n314,397,389,223,411\n']___EMG_[b'.061,7401.199,-187500.016,-187500.016,-187500.016,-187500.016][-2259.225,2315.328,2710.238,7364.586,-187500.016,-187500.016,-187500.016,-187500.016][-2299.100,2190.560,2675.392,7394.694,-187500.016,-187500.016,-187500.016,-187500.016][-2283.365,2212.756,2662.383,7495.724,-187500.016,-187500.016,-187500.016,-187500.016][-2214.946,2253.749,2737.619,7471.115,-187500.016,-187500.016,-187500.016,-187500.016][-2196.260,2290.428,2729.841,7396.058,-187500.016,-187500.016,-187500.016,-187500.016][-2246.082,2298.676,2701.275,7439.264,-187500.016,-187500.016,-187500.016,-187500.016][-2245.836,2405.651,2746.157,7528.246,-187500.016,-187500.016,-187500.016,-187500.016][-2330.750,2244.294,2658.449,7419.952,-187500.016,-187500.016,-187500.016,-187500.016][-2386.205,2028.220,2493.717,7287.809,-187500.016,-187500.016,-187500.016,-187500.016][-2257.347,2140.247,2610.751,7393.778,-187500.016,-187500.016,-187500.016,-187500.016][-2184.324,2297.580,2789.520,7545.524,-187500.016,-187500.016,-187500.016,-187500.016][-2239.063,2288.819,2731.919,7467.673,-187500.016,-187500.016,-187500.016,-187500.016][-2282.717,2241.701,2679.013,7316.709,-187500.016,-187500.016,-187500.016,-187500.016][-2317.518,2158.552,2666.004,7398.204,-187500.016,-187500.016,-187500.016,-187500.016][-2238.907,2296.664,2735.809,7554.800,-187500.016,-187500.016,-187500.016,-187500.016][-2289.534,2234.370,2706.863,7491.589,-187500.016,-187500.016,-187500.016,-187500.016][-2267.495,2185.665,2676.867,7438.459,-187500.016,-187500.016,-187500.016,-187500.016][-2244.294,2218.366,2725.348,7437.521,-187500.016,-187500.016,-187500.016,-187500.016][-2257.414,2256.408,2715.916,7511.706,-187500.016,-187500.016,-187500.016,-187500.016][-2270.691,2345.279,2696.604,7407.770,-187500.016,-187500.016,-187500.016,-187500.016][-2312.400,2168.633,2622.128,7283.964,-187500.016,-187500.016,-187500.016,-187500.016][-2382.092,2066.575,2543.628,7277.772,-187500.016,-187500.016,-187500.016,-187500.016][-2232.425,2225.317,2756.395,7540.160,-187500.016,-187500.016,-187500.016,-187500.016][-2240.069,2237.141,2734.713,7518.792,-187500.016,-187500.016,-187500.016,-187500.016][-2293.825,2236.538,2633.706,7363.872,-187500.016,-187500.016,-187500.016,-187500.016][-2236.761,2288.372,2690.055,7478.133,-187500.016,-187500.016,-187500.016,-187500.016][-2255.693,2159.402,2651.498,7509.471,-187500.016,-187500.016,-187500.016,-187500.016][-2301.157,2119.459,2577.938,7416.867,-187500.016,-187500.016,-187500.016,-187500.016][-2208.106,2260.454,2708.048,7395.365,-187500.016,-187500.016,-187500.016,-187500.016][-2205.268,2282.202,2756.663,7383.317,-187500.016,-187500.016,-187500.016,-187500.016][-2231.799,2382.651,2754.271,7453.859,-187500.016,-187500.016,-187500.016,-187500.016][-2284.102,2347.671,2719.626,7484.638,-187500.016,-187500.016,-187500.016,-187500.016][-2295.636,2165.191,2684.824,7423.886,-187500.016,-187500.016,-187500.016,-187500.016][-2274.200,2196.573,2705.097,7370.331,-187500.016,-187500.016,-187500.016,-187500.016][-2258.867,2211.973,2696.537,7362.754,-187500.016,-187500.016,-187500.016,-187500.016][-2292.507,2215.169,2656.505,7444.271,-187500.016,-187500.016,-187500.016,-187500.016][-2309.941,2126.634,2641.127,7434.928,-187500.016,-187500.016,-187500.016,-187500.016][-2286.405,2201.378,2698.526,7348.001,-187500.016,-187500.016,-187500.016,-187500.016][-2276.056,2272.524,2675.526,7428.669,-187500.016,-187500.016,-187500.016,-187500.016][-2270.915,2211.928,2714.396,7563.696,-187500.016,-187500.016,-187500.016,-187500.016][-2269.551,2211.169,2700.068,7555.001,-187500.016,-187500.016,-187500.016,-187500.016][-2265.416,2269.060,2622.329,7356.719,-187500.016,-187500.016,-187500.016,-187500.016][-2306.834,2226.368,2635.248,7281.595,-187500.016,-187500.016,-187500.016,-187500.016][-2296.709,2210.096,2694.570,7387.050,-187500.016,-187500.016,-187500.016,-187500.016][-2228.134,2302.520,2746.828,7524.938,-187500.016,-187500.016,-187500.016,-187500.016][-2278.514,2197.489,2665.714,7450.082,-187500.016,-187500.016,-187500.016,-187500.016][-2296.530,2155.736,2672.307,7444.517,-187500.016,-187500.016,-187500.016,-187', b'500.016][-2280.861,2181.552,2657.086,7460.073,-187500.016,-187500.016,-187500.016,-187500.016][-2368.458,2109.871,2595.999,7453.994,-187500.016,-187500.016,-187500.016,-187500.016][-2269.305,2230.302,2672.218,7342.525,-187500.016,-187500.016,-187500.016,-187500.016][-2114.833,2383.568,2775.260,7416.286,-187500.016,-187500.016,-187500.016,-187500.016][-2188.951,2271.518,2741.218,7505.224,-187500.016,-187500.016,-187500.016,-187500.016][-2296.932,2194.226,2729.327,7498.831,-187500.016,-187500.016,-187500.016,-187500.016][-2287.343,2221.696,2661.601,7390.961,-187500.016,-187500.016,-187500.016,-187500.016][-2307.862,2239.242,2680.265,7314.027,-187500.016,-187500.016,-187500.016,-187500.016][-2281.711,2302.721,2720.163,7416.778,-187500.016,-187500.016,-187500.016,-187500.016][-2210.833,2440.833,2757.848,7585.578,-187500.016,-187500.016,-187500.016,-187500.016][-2257.951,2320.469,2674.811,7427.954,-187500.016,-187500.016,-187500.016,-187500.016][-2328.582,2160.251,2602.458,7257.745,-187500.016,-187500.016,-187500.016,-187500.016][-2290.294,2096.996,2646.916,7383.988,-187500.016,-187500.016,-187500.016,-187500.016][-2281.264,2154.328,2688.378,7555.761,-187500.016,-187500.016,-187500.016,-187500.016][-2307.661,2178.915,2710.350,7407.390,-187500.016,-187500.016,-187500.016,-187500.016][-2246.171,2284.080,2671.838,7341.967,-187500.016,-187500.016,-187500.016,-187500.016][-2262.622,2234.370,2690.614,7406.228,-187500.016,-187500.016,-187500.016,-187500.016][-2365.195,2096.392,2697.542,7515.863,-187500.016,-187500.016,-187500.016,-187500.016][-2358.690,2129.160,2568.439,7442.885,-187500.016,-187500.016,-187500.016,-187500.016][-2199.993,2304.778,2738.513,7376.701,-187500.016,-187500.016,-187500.016,-187500.016][-2216.332,2282.001,2721.369,7405.669,-187500.016,-187500.016,-187500.016,-187500.016][-2249.479,2249.904,2740.860,7520.021,-187500.016,-187500.016,-187500.016,-187500.016][-2260.119,2294.921,2755.277,7544.004,-187500.016,-187500.016,-187500.016,-187500.016][-2289.958,2297.781,2664.462,7405.647,-187500.016,-187500.016,-187500.016,-187500.016][-2325.967,2172.165,2644.100,7291.049,-187500.016,-187500.016,-187500.016,-187500.016][-2336.808,2163.694,2651.789,7423.037,-187500.016,-187500.016,-187500.016,-187500.016][-2280.683,2188.057,2685.562,7572.212,-187500.016,-187500.016,-187500.016,-187500.016][-2256.252,2208.397,2672.799,7415.258,-187500.016,-187500.016,-187500.016,-187500.016][-2249.569,2222.568,2685.853,7318.587,-187500.016,-187500.016,-187500.016,-187500.016][-2286.069,2250.888,2672.911,7404.239,-187500.016,-187500.016,-187500.016,-187500.016][-2216.779,2307.214,2724.029,7528.246,-187500.016,-187500.016,-187500.016,-187500.016][-2285.533,2278.045,2669.871,7363.447,-187500.016,-187500.016,-187500.016,-187500.016][-2253.659,2222.523,2705.299,7318.654,-187500.016,-187500.016,-187500.016,-187500.016][-2263.025,2200.552,2730.981,7425.249,-187500.016,-187500.016,-187500.016,-187500.016][-2280.928,2272.345,2680.421,7481.375,-187500.016,-187500.016,-187500.016,-187500.016][-2260.432,2276.994,2698.437,7433.542,-187500.016,-187500.016,-187500.016,-187500.016][-2276.615,2356.410,2674.945,7339.888,-187500.016,-187500.016,-187500.016,-187500.016][-2322.726,2277.576,2666.585,7408.262,-187500.016,-187500.016,-187500.016,-187500.016][-2352.230,2050.191,2683.394,7491.567,-187500.016,-187500.016,-187500.016,-187500.016][-2305.113,2122.253,2722.599,7407.323,-187500.016,-187500.016,-187500.016,-187500.016][-2261.594,2248.317,2697.431,7384.971,-187500.016,-187500.016,-187500.016,-187500.016][-2291.367,2360.255,2675.906,7382.423,-187500.016,-187500.016,-187500.016,-187500.016][-2307.169,2242.729,2677.649,7453.815,-187500.016,-187500.016,-187500.016,-187500.016][-2373.889,2030.723,2609.253,7513.114,-187500.016,-187500.016,-187500.016,-187500.016][-2274.424,2168.320,2676.599,7377.841,-187500.016,-187500.016,-187500.016,-187500.016][-2194.092,2272.122,2752.617,7349.097,-187500.016,-187500.016,-187500.016,-187500.016][-2324.805,2158.687,2679.594,7455.066,-187500.016,-187500.016,-187500.016,-187500.016][-2354.264,2126.254,2646.402,7499.971,-187500.']
INDEX_b'2.804842710494995'___FLEX_[b'313,397,389,222,411\n314,396,389,222,411\n314,397,389,222,411\n313,396,389,222,410\n314,396,388,221,411\n314,396,390,222,411\n313,396,388,223,410\n312,397,389,223,411\n313,396,389,222,412\n314,397,389,222,410\n314,397,389,221,411\n313,396,388,222,411\n312,396,388,222,411\n314,396,389,222,411\n314,397,388,223,411\n313,397,388,222,410\n314,396,389,222,411\n314,397,389,222,411\n314,396,389,222,410\n314,397,389,223,412\n314,397,389,222,411\n314,396,390,222,411\n314,397,389,223,411\n313,397,389,223,412\n314,397,388,222,409\n313,398,388,222,411\n313,397,389,222,411\n314,396,389,223,410\n314,397,389,223,411\n314,397,389,222,411\n313,396,388,222,411\n313,396,388,221,411\n314,396,389,222,411\n314,397,389,223,411\n313,398,389,222,411\n314,397,388,223,411\n313,396,388,223,411\n313,396,389,222,411\n313,396,389,222,412\n314,397,389,223,411\n313,397,388,222,411\n314,396,389,222,411\n314,397,388,223,411\n314,396,389,223,411\n314,397,389,223,411\n313,396,388,222,411\n313,397,389,223,411\n313,396,389,223,411\n313,396,389,223,411\n313,397,389,223,410\n', b'315,398,388,223,412\n313,397,389,223,412\n314,397,389,223,412\n313,397,389,223,411\n312,396,388,223,412\n313,396,387,221,411\n313,396,389,223,411\n313,397,388,223,412\n314,397,389,223,411\n314,397,389,223,412\n313,397,390,223,411\n313,397,389,223,412\n314,398,390,223,412\n313,397,389,223,412\n314,397,389,223,411\n314,395,388,222,411\n314,397,389,223,411\n313,397,389,223,412\n314,397,390,223,411\n313,397,388,223,412\n313,397,389,223,411\n314,398,389,223,411\n313,397,389,223,412\n313,397,389,223,411\n312,395,388,223,412\n313,397,389,223,411\n313,397,389,223,412\n313,397,389,223,412\n313,398,389,223,412\n313,398,389,224,411\n313,396,388,223,412\n313,397,388,223,411\n314,397,389,223,412\n313,397,389,223,411\n313,398,389,223,412\n313,397,389,222,411\n313,397,390,223,411\n313,397,389,224,412\n314,398,389,223,411\n314,396,389,223,411\n313,397,390,223,412\n314,398,389,224,411\n312,397,389,223,411\n313,397,388,223,412\n312,397,389,223,411\n313,397,388,223,412\n313,397,389,223,412\n313,397,390,223,412\n312,398,389,223,412\n313,398,389,224,412\n', b'312,396,389,223,411\n312,398,388,223,412\n313,395,388,223,412\n313,397,390,223,411\n312,397,388,224,411\n313,397,389,223,412\n312,398,389,223,412\n313,398,389,224,413\n313,397,389,223,411\n313,397,389,223,410\n312,397,389,223,412\n313,397,389,223,411\n312,397,389,224,412\n312,397,389,223,412\n313,397,389,224,412\n313,398,389,223,412\n312,398,388,223,411\n312,398,389,224,412\n312,397,388,223,411\n312,397,389,223,412\n312,398,389,224,412\n312,397,389,223,411\n312,398,389,223,411\n313,396,388,223,411\n312,397,389,223,412\n312,397,388,223,411\n312,398,389,225,411\n312,397,389,223,411\n312,397,389,223,411\n313,397,390,224,411\n312,397,388,223,412\n312,397,389,223,412\n311,397,388,224,412\n313,397,389,224,412\n312,397,388,223,412\n313,397,389,224,412\n312,397,389,223,412\n313,397,388,224,412\n312,397,389,223,412\n312,397,388,223,412\n312,398,389,223,411\n313,397,388,223,412\n311,397,389,223,412\n312,397,389,223,412\n311,398,389,223,412\n312,397,389,223,412\n312,397,388,224,412\n312,397,389,223,412\n312,397,389,224,412\n312,397,389,224,412\n', b'312,397,389,224,412\n312,397,389,224,412\n312,397,388,225,412\n311,397,389,224,413\n311,397,388,223,412\n312,397,389,224,412\n312,397,389,224,412\n312,398,389,224,412\n312,396,389,224,413\n312,397,390,224,412\n312,397,389,224,411\n312,397,388,224,413\n312,396,388,224,412\n311,398,389,224,412\n312,397,389,224,412\n312,398,389,224,412\n312,398,389,224,412\n311,397,388,225,412\n311,397,389,224,412\n311,398,389,224,412\n311,398,389,224,412\n312,397,388,224,412\n311,396,388,224,411\n312,397,389,225,412\n312,398,388,224,412\n312,397,389,224,412\n311,397,390,224,412\n311,397,388,225,412\n311,397,389,224,412\n311,397,388,224,412\n312,397,389,224,411\n311,397,389,224,412\n311,397,389,224,413\n312,397,388,224,412\n311,396,389,224,411\n312,397,389,224,411\n310,397,389,225,412\n311,397,389,224,412\n310,397,389,225,412\n311,397,389,224,412\n311,397,389,224,412\n311,397,389,224,411\n311,397,389,224,412\n311,397,389,225,412\n311,397,389,225,411\n311,397,389,224,411\n310,398,388,225,412\n311,397,389,225,411\n312,398,388,225,411\n311,397,389,224,412\n']___EMG_[b'016,-187500.016,-187500.016,-187500.016][-2194.561,2310.701,2743.028,7473.842,-187500.016,-187500.016,-187500.016,-187500.016][-2249.457,2251.134,2681.271,7301.107,-187500.016,-187500.016,-187500.016,-187500.016][-2279.565,2205.424,2676.308,7408.016,-187500.016,-187500.016,-187500.016,-187500.016][-2241.410,2229.207,2707.198,7541.166,-187500.016,-187500.016,-187500.016,-187500.016][-2296.619,2232.671,2681.337,7469.349,-187500.016,-187500.016,-187500.016,-187500.016][-2298.944,2353.214,2670.519,7362.352,-187500.016,-187500.016,-187500.016,-187500.016][-2253.100,2313.182,2657.198,7412.375,-187500.016,-187500.016,-187500.016,-187500.016][-2244.137,2272.099,2757.333,7510.208,-187500.016,-187500.016,-187500.016,-187500.016][-2271.854,2309.226,2729.908,7394.381,-187500.016,-187500.016,-187500.016,-187500.016][-2353.013,2125.092,2642.378,7193.417,-187500.016,-187500.016,-187500.016,-187500.016][-2278.201,2120.242,2656.259,7381.932,-187500.016,-187500.016,-187500.016,-187500.016][-2312.288,2184.503,2724.611,7560.231,-187500.016,-187500.016,-187500.016,-187500.016][-2396.755,2134.256,2658.047,7408.753,-187500.016,-187500.016,-187500.016,-187500.016][-2285.019,2205.022,2656.125,7265.523,-187500.016,-187500.016,-187500.016,-187500.016][-2226.055,2276.726,2692.223,7417.493,-187500.016,-187500.016,-187500.016,-187500.016][-2283.096,2275.452,2719.604,7501.424,-187500.016,-187500.016,-187500.016,-187500.016][-2396.643,2182.894,2672.531,7380.009,-187500.016,-187500.016,-187500.016,-187500.016][-2339.758,2121.382,2589.986,7372.790,-187500.016,-187500.016,-187500.016,-187500.016][-2239.019,2175.138,2689.764,7389.956,-187500.016,-187500.016,-187500.016,-187500.016][-2229.005,2302.476,2733.931,7492.193,-187500.016,-187500.016,-187500.016,-187500.016][-2241.969,2364.278,2732.724,7530.548,-187500.016,-187500.016,-187500.016,-187500.016][-2283.834,2271.451,2669.156,7420.734,-187500.016,-187500.016,-187500.016,-187500.016][-2327.778,2185.308,2645.754,7296.257,-187500.016,-187500.016,-187500.016,-187500.016][-2290.294,2194.472,2719.224,7500.262,-187500.016,-187500.016,-187500.016,-187500.016][-2270.714,2173.774,2709.478,7505.917,-187500.016,-187500.016,-187500.016,-187500.016][-2281.152,2246.328,2685.897,7352.070,-187500.016,-187500.016,-187500.016,-187500.016][-2311.975,2200.931,2638.020,7307.970,-187500.016,-187500.016,-187500.016,-187500.016][-2296.619,2195.902,2656.192,7471.584,-187500.016,-187500.016,-187500.016,-187500.016][-2338.149,2168.857,2664.194,7417.426,-187500.016,-187500.016,-187500.016,-187500.016][-2303.660,2217.718,2669.134,7332.289,-187500.016,-187500.016,-187500.016,-187500.016][-2240.516,2335.578,2737.552,7357.926,-187500.016,-187500.016,-187500.016,-187500.016][-2278.157,2359.584,2738.849,7452.876,-187500.016,-187500.016,-187500.016,-187500.016][-2250.977,2264.656,2728.902,7515.215,-187500.016,-187500.016,-187500.016,-187500.016][-2313.182,2116.844,2664.641,7472.970,-187500.016,-187500.016,-187500.016,-187500.016][-2319.977,2140.269,2567.746,7345.163,-187500.016,-187500.016,-187500.016,-187500.016][-2280.750,2214.879,2636.634,7317.067,-187500.016,-187500.016,-187500.016,-187500.016][-2283.924,2298.072,2750.807,7475.675,-187500.016,-187500.016,-187500.016,-187500.016][-2299.838,2337.478,2694.681,7401.892,-187500.016,-187500.016,-187500.016,-187500.016][-2344.407,2126.947,2609.633,7350.840,-187500.016,-187500.016,-187500.016,-187500.016][-2305.270,2143.666,2705.746,7385.977,-187500.016,-187500.016,-187500.016,-187500.016][-2361.953,2122.521,2754.785,7428.893,-187500.016,-187500.016,-187500.016,-187500.016][-2297.066,2179.496,2637.752,7441.410,-187500.016,-187500.016,-187500.016,-187500.016][-2248.474,2254.509,2652.347,7358.373,-187500.016,-187500.016,-187500.016,-187500.016][-2293.535,2220.489,2649.151,7383.139,-187500.016,-187500.016,-187500.016,-187500.016][-2327.733,2195.120,2665.133,7429.898,-187500.016,-187500.016,-187500.016,-187500.016][-2306.677,2196.014,2742.156,7460.967,-187500.016,-187500.016,-187500.016,-187500.016][-2322.615,2207.101,2669.044,7336.423,-187500.016,-187500.016,-187500.016,-187500.016][-2303.548,222', b'9.229,2707.646,7416.018,-187500.016,-187500.016,-187500.016,-187500.016][-2266.154,2301.738,2756.819,7497.065,-187500.016,-187500.016,-187500.016,-187500.016][-2305.985,2308.622,2685.473,7470.623,-187500.016,-187500.016,-187500.016,-187500.016][-2294.630,2193.511,2651.096,7351.958,-187500.016,-187500.016,-187500.016,-187500.016][-2243.735,2261.907,2696.313,7351.645,-187500.016,-187500.016,-187500.016,-187500.016][-2252.028,2209.604,2686.076,7426.836,-187500.016,-187500.016,-187500.016,-187500.016][-2237.946,2309.226,2664.507,7462.420,-187500.016,-187500.016,-187500.016,-187500.016][-2301.335,2286.159,2646.871,7339.866,-187500.016,-187500.016,-187500.016,-187500.016][-2336.964,2139.040,2639.137,7307.076,-187500.016,-187500.016,-187500.016,-187500.016][-2356.365,2110.988,2622.485,7415.750,-187500.016,-187500.016,-187500.016,-187500.016][-2330.303,2139.576,2696.000,7523.195,-187500.016,-187500.016,-187500.016,-187500.016][-2347.850,2150.417,2683.841,7380.658,-187500.016,-187500.016,-187500.016,-187500.016][-2288.908,2241.634,2659.254,7355.288,-187500.016,-187500.016,-187500.016,-187500.016][-2302.498,2308.443,2710.573,7309.221,-187500.016,-187500.016,-187500.016,-187500.016][-2266.735,2268.769,2729.438,7493.422,-187500.016,-187500.016,-187500.016,-187500.016][-2301.358,2229.765,2704.561,7431.240,-187500.016,-187500.016,-187500.016,-187500.016][-2321.542,2204.307,2701.856,7279.270,-187500.016,-187500.016,-187500.016,-187500.016][-2346.240,2110.072,2588.086,7402.316,-187500.016,-187500.016,-187500.016,-187500.016][-2299.771,2201.736,2688.311,7498.518,-187500.016,-187500.016,-187500.016,-187500.016][-2244.629,2259.113,2708.338,7477.955,-187500.016,-187500.016,-187500.016,-187500.016][-2266.936,2230.615,2657.510,7315.771,-187500.016,-187500.016,-187500.016,-187500.016][-2253.391,2305.091,2709.188,7383.228,-187500.016,-187500.016,-187500.016,-187500.016][-2288.729,2247.110,2728.746,7509.784,-187500.016,-187500.016,-187500.016,-187500.016][-2345.055,2155.334,2673.090,7434.011,-187500.016,-187500.016,-187500.016,-187500.016][-2354.220,2114.453,2590.656,7305.712,-187500.016,-187500.016,-187500.016,-187500.016][-2299.436,2187.453,2649.643,7295.430,-187500.016,-187500.016,-187500.016,-187500.016][-2281.308,2192.572,2715.268,7463.806,-187500.016,-187500.016,-187500.016,-187500.016][-2319.664,2205.536,2676.152,7495.054,-187500.016,-187500.016,-187500.016,-187500.016][-2353.795,2155.692,2627.872,7411.592,-187500.016,-187500.016,-187500.016,-187500.016][-2315.015,2216.689,2659.612,7282.958,-187500.016,-187500.016,-187500.016,-187500.016][-2246.529,2339.199,2729.617,7419.974,-187500.016,-187500.016,-187500.016,-187500.016][-2258.040,2308.265,2753.757,7492.595,-187500.016,-187500.016,-187500.016,-187500.016][-2324.604,2199.747,2686.702,7408.597,-187500.016,-187500.016,-187500.016,-187500.016][-2376.862,2172.254,2632.097,7356.831,-187500.016,-187500.016,-187500.016,-187500.016][-2291.948,2222.233,2644.390,7382.647,-187500.016,-187500.016,-187500.016,-187500.016][-2251.849,2288.059,2716.877,7443.891,-187500.016,-187500.016,-187500.016,-187500.016][-2325.453,2200.931,2691.150,7324.689,-187500.016,-187500.016,-187500.016,-187500.016][-2272.927,2207.637,2682.902,7318.117,-187500.016,-187500.016,-187500.016,-187500.016][-2286.941,2217.829,2683.193,7416.800,-187500.016,-187500.016,-187500.016,-187500.016][-2336.651,2178.893,2682.500,7458.754,-187500.016,-187500.016,-187500.016,-187500.016][-2375.320,2096.504,2624.832,7441.499,-187500.016,-187500.016,-187500.016,-187500.016][-2256.096,2203.569,2655.767,7337.474,-187500.016,-187500.016,-187500.016,-187500.016][-2286.114,2208.866,2672.956,7403.970,-187500.016,-187500.016,-187500.016,-187500.016][-2355.740,2151.087,2669.268,7446.237,-187500.016,-187500.016,-187500.016,-187500.016][-2349.503,2174.959,2739.631,7419.192,-187500.016,-187500.016,-187500.016,-187500.016][-2342.485,2216.980,2632.633,7248.559,-187500.016,-187500.016,-187500.016,-187500.016][-2245.166,2270.244,2691.128,7377.774,-187500.016,-187500.016,-187500.016,-187500.016][-2335.176,2172.366,2659.746,7472.322,-187500.016,-187500.016,-18750']
INDEX_b'3.2049553394317627'___FLEX_[b'311,398,389,224,411\n311,397,389,225,412\n310,398,389,225,412\n311,397,388,225,412\n311,398,389,224,412\n310,398,389,224,412\n311,397,389,225,412\n311,397,389,225,412\n310,398,388,224,412\n311,397,389,224,412\n311,397,389,224,411\n310,397,389,225,412\n311,398,389,225,412\n311,397,388,225,412\n311,397,389,224,412\n311,397,389,225,412\n310,398,389,224,412\n311,397,388,225,412\n311,397,390,225,412\n311,397,389,224,413\n311,397,389,226,412\n311,397,388,224,411\n310,398,389,225,413\n310,397,389,225,412\n311,397,389,225,413\n311,397,388,225,413\n310,397,389,225,412\n311,397,389,225,411\n311,398,389,225,413\n311,397,389,225,413\n311,397,389,225,413\n310,397,389,225,412\n310,398,389,225,412\n311,398,389,225,412\n310,397,389,224,412\n310,397,389,225,412\n310,399,389,225,413\n311,397,389,225,412\n311,398,389,225,413\n310,397,389,225,412\n310,398,389,225,412\n311,397,389,225,412\n311,397,389,226,412\n310,397,389,225,412\n309,398,389,225,412\n309,397,389,225,412\n310,398,389,226,412\n310,398,387,225,412\n310,397,389,225,412\n310,397,389,225,413\n', b'310,397,389,225,412\n311,398,389,225,412\n310,397,389,225,412\n310,397,388,225,412\n310,398,389,225,412\n310,397,389,225,412\n310,397,389,224,413\n310,398,389,225,411\n310,398,389,225,412\n311,397,389,225,413\n310,397,389,225,412\n309,397,389,225,412\n310,398,389,225,412\n310,398,389,225,413\n310,397,389,225,410\n310,398,390,225,412\n310,397,389,225,412\n311,397,389,226,412\n310,397,389,225,413\n310,397,388,226,414\n309,399,389,226,412\n311,398,389,225,412\n310,397,389,225,412\n310,398,389,225,412\n309,398,389,225,413\n310,398,389,227,413\n310,398,389,226,412\n310,397,388,225,412\n310,398,389,225,413\n310,397,389,226,412\n310,398,389,226,412\n310,397,389,225,412\n310,397,389,225,413\n310,397,389,225,412\n310,397,389,225,412\n310,397,390,225,413\n309,398,390,225,412\n310,397,389,226,412\n310,396,389,226,413\n310,398,389,226,412\n310,398,389,226,413\n310,398,389,226,412\n310,397,389,226,412\n310,398,389,225,412\n309,398,390,225,411\n309,397,389,226,412\n310,397,388,226,412\n310,398,389,225,413\n309,398,389,226,412\n308,398,390,227,413\n', b'309,397,389,226,412\n309,397,388,225,412\n310,398,388,225,412\n310,398,388,225,412\n310,398,389,227,412\n310,398,390,227,412\n310,397,388,226,413\n310,398,389,226,412\n309,398,389,225,413\n309,397,389,225,412\n311,397,389,226,412\n310,397,388,226,413\n310,398,389,226,412\n310,398,389,224,413\n310,400,388,227,413\n310,397,389,226,413\n309,397,388,225,412\n310,397,389,226,412\n310,398,388,226,413\n311,398,388,226,412\n310,398,390,227,413\n310,397,388,225,412\n310,398,389,226,413\n309,397,389,227,412\n310,398,389,226,413\n310,397,389,226,413\n309,398,389,226,413\n310,398,389,226,412\n309,398,389,225,412\n310,397,389,226,412\n309,397,389,226,413\n310,397,388,226,412\n309,397,389,226,412\n310,398,390,225,413\n309,397,389,227,413\n310,398,389,226,411\n310,397,389,226,413\n309,398,389,227,412\n309,397,389,226,415\n310,397,388,226,412\n310,397,388,226,413\n310,398,390,226,413\n309,397,389,226,413\n310,398,389,226,413\n310,398,389,227,413\n310,398,390,227,413\n310,398,389,226,413\n310,398,390,226,413\n310,398,389,227,413\n310,398,389,228,412\n', b'310,398,388,227,413\n310,397,389,227,412\n309,398,390,227,412\n310,397,388,226,413\n309,398,389,227,414\n309,398,389,226,413\n309,398,389,227,412\n309,398,388,226,413\n310,398,388,227,413\n310,397,389,227,413\n310,398,389,226,412\n309,398,389,227,413\n310,398,389,227,412\n310,398,390,227,413\n309,397,389,226,413\n310,397,388,227,413\n309,397,389,227,413\n310,397,390,227,413\n310,398,389,226,413\n309,398,389,226,412\n309,398,389,227,413\n310,397,389,227,413\n309,398,389,227,412\n309,398,389,226,413\n310,397,389,227,412\n310,397,390,227,413\n309,397,389,227,412\n310,397,389,227,412\n309,398,389,228,413\n309,398,389,227,413\n309,398,389,226,413\n310,398,390,226,413\n309,398,389,227,413\n309,398,389,227,413\n308,397,388,227,412\n309,398,389,226,413\n309,398,388,227,412\n309,398,389,227,412\n308,398,389,227,413\n310,397,389,227,414\n309,397,389,227,412\n309,397,389,226,413\n309,397,388,226,414\n311,398,389,227,415\n309,398,389,227,413\n309,397,389,227,413\n309,397,388,227,413\n309,397,388,227,413\n310,398,389,226,413\n309,397,389,226,412\n', b'309,398,389,227,413\n309,398,389,227,413\n308,397,389,227,412\n309,397,389,227,412\n309,397,389,227,412\n308,398,389,227,413\n309,397,388,227,413\n309,398,389,228,413\n309,398,389,227,413\n309,398,389,227,413\n309,397,389,227,413\n309,398,389,227,413\n309,398,389,227,413\n309,397,389,227,413\n309,397,389,227,412\n309,397,389,227,413\n309,396,389,226,413\n308,397,389,227,412\n309,397,389,227,413\n309,397,390,227,413\n309,397,389,227,413\n309,397,389,228,412\n309,398,389,227,413\n309,397,389,228,413\n308,398,389,228,413\n308,398,389,227,413\n309,398,389,227,413\n308,396,389,227,413\n308,397,390,227,413\n309,397,389,227,413\n308,397,389,227,413\n309,397,390,227,414\n306,398,390,227,412\n309,398,389,227,413\n308,398,389,227,413\n309,397,389,227,412\n308,398,389,227,413\n309,397,389,228,414\n308,398,389,228,413\n309,397,389,227,413\n308,398,389,227,413\n309,398,389,228,413\n309,398,389,226,412\n308,398,389,227,413\n308,398,389,227,413\n309,397,389,227,412\n308,398,390,227,415\n308,399,389,227,413\n308,397,388,227,413\n307,398,389,227,413\n']___EMG_[b'0.016,-187500.016][-2316.468,2236.694,2684.377,7455.491,-187500.016,-187500.016,-187500.016,-187500.016][-2269.082,2255.448,2686.501,7410.408,-187500.016,-187500.016,-187500.016,-187500.016][-2288.908,2221.406,2655.409,7364.654,-187500.016,-187500.016,-187500.016,-187500.016][-2307.661,2163.313,2705.947,7472.903,-187500.016,-187500.016,-187500.016,-187500.016][-2319.597,2224.423,2670.676,7446.685,-187500.016,-187500.016,-187500.016,-187500.016][-2278.201,2273.418,2658.271,7339.933,-187500.016,-187500.016,-187500.016,-187500.016][-2299.458,2178.423,2671.257,7323.169,-187500.016,-187500.016,-187500.016,-187500.016][-2293.378,2216.801,2700.515,7425.674,-187500.016,-187500.016,-187500.016,-187500.016][-2250.530,2357.237,2705.410,7469.260,-187500.016,-187500.016,-187500.016,-187500.016][-2313.785,2230.771,2658.494,7358.306,-187500.016,-187500.016,-187500.016,-187500.016][-2338.596,2151.646,2687.752,7303.946,-187500.016,-187500.016,-187500.016,-187500.016][-2351.180,2177.038,2681.427,7366.218,-187500.016,-187500.016,-187500.016,-187500.016][-2377.711,2106.138,2640.836,7421.628,-187500.016,-187500.016,-187500.016,-187500.016][-2293.602,2202.183,2678.119,7394.896,-187500.016,-187500.016,-187500.016,-187500.016][-2263.136,2228.022,2674.453,7407.211,-187500.016,-187500.016,-187500.016,-187500.016][-2373.219,2134.547,2624.586,7383.027,-187500.016,-187500.016,-187500.016,-187500.016][-2344.698,2170.265,2680.309,7468.187,-187500.016,-187500.016,-187500.016,-187500.016][-2306.454,2218.835,2674.453,7396.438,-187500.016,-187500.016,-187500.016,-187500.016][-2284.706,2221.182,2643.943,7306.315,-187500.016,-187500.016,-187500.016,-187500.016][-2273.552,2270.848,2710.663,7429.116,-187500.016,-187500.016,-187500.016,-187500.016][-2312.489,2194.896,2707.578,7496.216,-187500.016,-187500.016,-187500.016,-187500.016][-2333.611,2145.454,2709.545,7388.682,-187500.016,-187500.016,-187500.016,-187500.016][-2380.170,2114.855,2611.421,7250.816,-187500.016,-187500.016,-187500.016,-187500.016][-2222.859,2277.643,2689.831,7468.857,-187500.016,-187500.016,-187500.016,-187500.016][-2263.248,2210.766,2717.056,7479.519,-187500.016,-187500.016,-187500.016,-187500.016][-2327.889,2155.133,2595.999,7407.122,-187500.016,-187500.016,-187500.016,-187500.016][-2309.092,2200.931,2637.372,7319.302,-187500.016,-187500.016,-187500.016,-187500.016][-2268.367,2244.316,2682.209,7344.425,-187500.016,-187500.016,-187500.016,-187500.016][-2287.768,2281.241,2729.438,7458.263,-187500.016,-187500.016,-187500.016,-187500.016][-2330.885,2244.875,2689.764,7449.389,-187500.016,-187500.016,-187500.016,-187500.016][-2357.684,2202.228,2644.904,7310.406,-187500.016,-187500.016,-187500.016,-187500.016][-2314.679,2184.458,2663.300,7329.986,-187500.016,-187500.016,-187500.016,-187500.016][-2405.875,2185.688,2650.671,7327.550,-187500.016,-187500.016,-187500.016,-187500.016][-2299.860,2273.843,2701.521,7491.589,-187500.016,-187500.016,-187500.016,-187500.016][-2280.750,2178.356,2667.658,7388.212,-187500.016,-187500.016,-187500.016,-187500.016][-2337.277,2103.724,2635.002,7281.550,-187500.016,-187500.016,-187500.016,-187500.016][-2280.370,2180.480,2650.448,7475.563,-187500.016,-187500.016,-187500.016,-187500.016][-2288.796,2214.365,2671.212,7440.873,-187500.016,-187500.016,-187500.016,-187500.016][-2330.147,2180.077,2656.281,7341.855,-187500.016,-187500.016,-187500.016,-187500.016][-2341.703,2171.874,2635.583,7261.612,-187500.016,-187500.016,-187500.016,-187500.016][-2309.583,2184.123,2639.093,7428.959,-187500.016,-187500.016,-187500.016,-187500.016][-2308.913,2151.869,2706.863,7518.970,-187500.016,-187500.016,-187500.016,-187500.016][-2308.577,2185.397,2691.887,7406.519,-187500.016,-187500.016,-187500.016,-187500.016][-2264.031,2231.263,2691.776,7342.302,-187500.016,-187500.016,-187500.016,-187500.016][-2303.459,2180.167,2634.891,7361.949,-187500.016,-187500.016,-187500.016,-187500.016][-2315.551,2168.611,2670.139,7480.615,-187500.016,-187500.016,-187500.016,-187500.016][-2300.375,2311.751,2717.212,7453.390,-187500.016,-187500.016,-187500.016,-187500.016][-2321.206,2283.856,2675.079,7301.66', b'7,-187500.016,-187500.016,-187500.016,-187500.016][-2372.772,2088.502,2602.816,7328.399,-187500.016,-187500.016,-187500.016,-187500.016][-2297.223,2178.513,2661.579,7455.514,-187500.016,-187500.016,-187500.016,-187500.016][-2251.357,2363.094,2773.762,7417.962,-187500.016,-187500.016,-187500.016,-187500.016][-2298.296,2283.745,2671.659,7314.921,-187500.016,-187500.016,-187500.016,-187500.016][-2345.659,2110.474,2578.117,7314.519,-187500.016,-187500.016,-187500.016,-187500.016][-2352.901,2065.323,2648.436,7426.881,-187500.016,-187500.016,-187500.016,-187500.016][-2307.102,2159.983,2736.233,7429.675,-187500.016,-187500.016,-187500.016,-187500.016][-2289.579,2253.793,2679.259,7360.340,-187500.016,-187500.016,-187500.016,-187500.016][-2346.441,2288.014,2604.000,7251.196,-187500.016,-187500.016,-187500.016,-187500.016][-2364.971,2189.532,2635.740,7359.334,-187500.016,-187500.016,-187500.016,-187500.016][-2315.104,2112.866,2691.686,7524.245,-187500.016,-187500.016,-187500.016,-187500.016][-2293.602,2152.607,2658.740,7376.276,-187500.016,-187500.016,-187500.016,-187500.016][-2344.497,2136.223,2685.093,7243.261,-187500.016,-187500.016,-187500.016,-187500.016][-2310.254,2201.736,2670.609,7394.694,-187500.016,-187500.016,-187500.016,-187500.016][-2352.007,2174.065,2644.412,7494.674,-187500.016,-187500.016,-187500.016,-187500.016][-2326.012,2200.529,2672.173,7405.200,-187500.016,-187500.016,-187500.016,-187500.016][-2286.673,2198.361,2682.008,7281.527,-187500.016,-187500.016,-187500.016,-187500.016][-2373.018,2115.615,2541.438,7311.568,-187500.016,-187500.016,-187500.016,-187500.016][-2310.388,2180.100,2664.171,7470.042,-187500.016,-187500.016,-187500.016,-187500.016][-2294.094,2198.607,2674.699,7390.961,-187500.016,-187500.016,-187500.016,-187500.016][-2268.076,2215.617,2673.537,7325.762,-187500.016,-187500.016,-187500.016,-187500.016][-2253.816,2222.903,2698.660,7357.188,-187500.016,-187500.016,-187500.016,-187500.016][-2295.614,2204.932,2717.950,7462.912,-187500.016,-187500.016,-187500.016,-187500.016][-2335.735,2164.610,2653.487,7419.058,-187500.016,-187500.016,-187500.016,-187500.016][-2324.134,2224.624,2673.447,7335.730,-187500.016,-187500.016,-187500.016,-187500.016][-2311.438,2215.371,2680.890,7362.642,-187500.016,-187500.016,-187500.016,-187500.016][-2306.901,2170.958,2721.504,7451.826,-187500.016,-187500.016,-187500.016,-187500.016][-2322.704,2285.198,2708.294,7406.563,-187500.016,-187500.016,-187500.016,-187500.016][-2319.552,2232.671,2655.477,7316.866,-187500.016,-187500.016,-187500.016,-187500.016][-2288.751,2173.327,2674.051,7327.885,-187500.016,-187500.016,-187500.016,-187500.016][-2297.178,2270.021,2728.209,7437.297,-187500.016,-187500.016,-187500.016,-187500.016][-2364.837,2195.411,2635.405,7461.548,-187500.016,-187500.016,-187500.016,-187500.016][-2409.943,2118.073,2621.301,7364.654,-187500.016,-187500.016,-187500.016,-187500.016][-2326.034,2102.427,2587.460,7327.975,-187500.016,-187500.016,-187500.016,-187500.016][-2328.873,2131.395,2643.608,7368.118,-187500.016,-187500.016,-187500.016,-187500.016][-2346.911,2105.221,2598.591,7373.684,-187500.016,-187500.016,-187500.016,-187500.016][-2336.472,2140.470,2593.786,7234.634,-187500.016,-187500.016,-187500.016,-187500.016][-2227.262,2323.598,2742.648,7384.591,-187500.016,-187500.016,-187500.016,-187500.016][-2279.923,2275.028,2708.897,7473.820,-187500.016,-187500.016,-187500.016,-187500.016][-2343.513,2128.445,2642.401,7526.682,-187500.016,-187500.016,-187500.016,-187500.016][-2283.990,2172.858,2694.503,7296.749,-187500.016,-187500.016,-187500.016,-187500.016][-2260.298,2201.043,2694.257,7285.350,-187500.016,-187500.016,-187500.016,-187500.016][-2323.285,2181.262,2653.755,7357.881,-187500.016,-187500.016,-187500.016,-187500.016][-2336.115,2186.850,2672.889,7429.519,-187500.016,-187500.016,-187500.016,-187500.016][-2309.427,2258.107,2662.651,7387.251,-187500.016,-187500.016,-187500.016,-187500.016][-2316.132,2369.709,2662.517,7262.931,-187500.016,-187500.016,-187500.016,-187500.016][-2395.168,2230.816,2627.872,7277.907,-187500.016,-187500.016,-187500.016,-187500.016][-24']
INDEX_b'3.605781316757202'___FLEX_[b'308,398,389,227,413\n308,398,389,227,413\n308,397,389,227,413\n308,398,389,227,413\n308,397,389,227,412\n308,398,389,227,413\n309,398,389,227,413\n308,398,389,227,412\n308,397,389,227,412\n308,398,389,227,414\n305,397,389,227,413\n308,398,389,228,414\n307,398,389,227,412\n308,398,388,227,413\n308,398,389,227,413\n308,397,390,227,412\n309,397,389,227,413\n307,397,389,227,413\n308,397,389,227,413\n308,398,388,227,414\n308,398,389,227,413\n307,397,388,227,413\n307,396,389,227,412\n308,397,389,228,412\n308,398,389,227,413\n308,397,389,228,413\n308,398,389,227,413\n308,397,389,227,413\n307,398,389,227,413\n308,397,388,227,413\n308,398,389,227,413\n308,397,389,227,413\n308,397,389,227,413\n308,398,389,228,413\n308,397,389,229,413\n308,398,389,228,413\n308,398,389,227,413\n308,397,389,227,413\n308,398,389,228,413\n307,398,388,228,413\n308,397,389,228,413\n308,398,389,228,413\n308,397,389,228,413\n308,397,388,228,413\n307,397,389,229,413\n308,397,388,229,413\n308,398,389,228,414\n308,397,389,228,413\n308,397,389,229,413\n308,398,389,229,413\n', b'308,398,389,229,414\n308,398,389,228,413\n307,397,389,229,414\n308,397,389,229,414\n308,398,389,229,414\n308,398,389,229,413\n308,398,389,230,414\n308,398,389,230,414\n308,398,389,229,414\n307,398,389,229,413\n308,398,389,230,414\n308,398,389,230,415\n308,398,390,230,414\n307,398,389,231,414\n308,398,389,229,415\n308,398,389,231,415\n308,398,389,231,414\n308,398,389,231,415\n307,398,389,231,414\n308,398,389,231,415\n308,398,389,231,415\n308,398,390,231,414\n307,398,390,232,415\n308,398,389,232,415\n308,398,389,232,414\n309,398,390,232,415\n308,398,390,232,415\n308,398,389,233,414\n308,398,390,234,415\n308,398,389,234,415\n307,398,390,232,416\n308,398,389,234,416\n307,398,389,233,415\n308,398,390,233,416\n307,398,390,234,415\n308,397,390,234,415\n308,398,389,234,414\n308,398,390,235,415\n308,399,390,235,416\n308,398,390,235,415\n307,397,389,234,415\n308,398,391,235,415\n308,397,391,235,415\n308,398,391,236,415\n307,397,390,235,415\n307,398,391,236,415\n308,398,390,237,416\n308,397,391,237,416\n307,398,391,237,415\n308,397,391,237,416\n', b'307,398,391,237,416\n308,398,391,238,416\n307,398,391,239,415\n307,398,391,239,415\n308,398,392,239,416\n307,398,392,240,417\n307,398,391,241,416\n308,398,392,240,415\n307,398,391,241,416\n307,396,391,242,416\n307,398,391,242,416\n308,398,392,243,415\n307,398,392,242,416\n307,400,391,244,416\n307,399,392,245,416\n307,398,390,245,416\n308,398,392,245,416\n307,398,392,246,415\n307,399,392,247,416\n308,399,392,247,417\n307,399,392,248,415\n308,398,392,249,416\n308,399,391,249,416\n307,398,392,250,417\n308,398,392,250,416\n308,398,392,251,417\n307,398,391,251,417\n308,398,392,251,417\n307,398,392,251,417\n307,398,393,251,416\n308,398,392,251,417\n308,398,392,252,417\n308,398,392,252,417\n308,398,392,252,416\n307,398,392,252,417\n307,398,393,252,417\n308,398,393,253,417\n308,398,393,254,416\n307,398,393,253,417\n307,398,392,253,417\n307,398,392,253,416\n307,398,393,254,417\n308,398,393,254,416\n308,399,392,254,417\n308,398,392,254,417\n308,398,393,253,416\n308,397,392,255,417\n308,398,392,255,418\n308,398,393,256,417\n308,398,392,255,416\n', b'308,398,393,257,417\n308,399,392,256,417\n308,399,393,256,417\n307,399,393,256,416\n308,398,392,256,417\n308,397,393,257,418\n308,398,392,256,417\n308,398,393,256,417\n308,398,393,256,417\n308,398,393,257,417\n308,399,392,258,417\n308,398,392,257,417\n308,399,392,258,415\n309,399,392,257,418\n308,399,392,258,417\n308,398,393,259,417\n308,399,393,258,417\n307,399,393,259,417\n307,399,392,259,417\n308,399,393,259,417\n308,398,393,260,417\n308,398,392,261,417\n309,398,392,262,417\n308,398,392,262,417\n308,399,391,263,417\n307,398,393,264,417\n308,398,393,264,418\n308,398,393,265,417\n308,399,393,267,418\n308,399,393,265,417\n308,398,393,267,417\n308,398,393,268,418\n308,399,393,269,417\n308,398,392,269,417\n308,399,393,271,417\n307,398,393,273,417\n308,398,393,273,418\n308,398,393,275,418\n308,399,393,277,417\n308,398,393,278,417\n308,399,392,280,418\n308,400,393,281,418\n308,398,394,283,417\n308,398,393,284,417\n308,398,393,285,417\n308,399,393,287,418\n308,399,393,288,418\n308,399,394,290,418\n308,398,393,291,417\n308,399,393,292,418\n', b'308,399,393,294,417\n308,398,393,296,417\n307,398,393,296,417\n308,398,393,298,418\n308,399,393,300,418\n308,399,393,301,418\n308,399,393,303,418\n308,398,392,304,418\n308,398,393,306,418\n308,398,393,307,417\n308,398,393,309,416\n308,399,393,310,418\n309,399,392,312,417\n308,398,392,313,418\n308,398,394,315,418\n309,398,393,318,417\n308,399,393,319,419\n308,398,394,321,418\n308,398,393,322,418\n309,399,393,325,418\n308,399,394,326,418\n309,399,393,328,418\n308,398,394,330,418\n308,399,393,331,418\n308,399,393,333,419\n308,399,393,335,418\n308,398,394,337,418\n309,399,393,339,419\n308,398,393,340,418\n308,399,393,343,418\n308,398,394,344,418\n308,399,393,346,418\n308,399,394,348,418\n309,398,393,349,418\n308,399,394,351,419\n308,398,395,353,418\n308,398,393,354,418\n309,399,394,356,419\n307,399,394,357,418\n309,398,394,359,418\n308,399,395,361,418\n310,399,394,362,419\n308,397,394,364,418\n309,399,394,364,418\n309,399,395,366,418\n308,398,394,367,418\n308,398,395,368,419\n308,398,394,369,418\n308,399,394,370,418\n309,399,395,371,418\n']___EMG_[b'21.230,2099.119,2562.113,7390.761,-187500.016,-187500.016,-187500.016,-187500.016][-2320.491,2045.833,2683.394,7451.445,-187500.016,-187500.016,-187500.016,-187500.016][-2302.855,2091.207,2673.045,7348.158,-187500.016,-187500.016,-187500.016,-187500.016][-2357.640,2103.567,2608.851,7311.255,-187500.016,-187500.016,-187500.016,-187500.016][-2300.888,2216.220,2707.891,7446.908,-187500.016,-187500.016,-187500.016,-187500.016][-2295.457,2204.418,2698.526,7461.906,-187500.016,-187500.016,-187500.016,-187500.016][-2291.926,2222.903,2694.123,7359.803,-187500.016,-187500.016,-187500.016,-187500.016][-2284.818,2244.406,2672.509,7304.662,-187500.016,-187500.016,-187500.016,-187500.016][-2318.122,2164.275,2640.389,7373.930,-187500.016,-187500.016,-187500.016,-187500.016][-2358.221,2096.124,2554.536,7384.323,-187500.016,-187500.016,-187500.016,-187500.016][-2330.527,2198.540,2698.481,7336.043,-187500.016,-187500.016,-187500.016,-187500.016][-2266.132,2240.539,2725.862,7293.307,-187500.016,-187500.016,-187500.016,-187500.016][-2274.715,2204.865,2675.481,7410.408,-187500.016,-187500.016,-187500.016,-187500.016][-2331.823,2216.265,2670.162,7443.868,-187500.016,-187500.016,-187500.016,-187500.016][-2335.601,2215.974,2657.399,7393.778,-187500.016,-187500.016,-187500.016,-187500.016][-2378.002,2084.926,2587.438,7316.530,-187500.016,-187500.016,-187500.016,-187500.016][-2361.886,2075.695,2557.822,7313.468,-187500.016,-187500.016,-187500.016,-187500.016][-2211.124,2319.686,2787.486,7502.050,-187500.016,-187500.016,-187500.016,-187500.016][-2285.376,2296.977,2722.152,7441.633,-187500.016,-187500.016,-187500.016,-187500.016][-2362.669,2159.581,2611.823,7306.204,-187500.016,-187500.016,-187500.016,-187500.016][-2406.411,2035.126,2551.295,7241.183,-187500.016,-187500.016,-187500.016,-187500.016][-2267.853,2226.122,2739.050,7450.462,-187500.016,-187500.016,-187500.016,-187500.016][-2267.406,2230.905,2716.184,7434.480,-187500.016,-187500.016,-187500.016,-187500.016][-2283.096,2294.094,2674.006,7286.825,-187500.016,-187500.016,-187500.016,-187500.016][-2312.757,2432.496,2655.477,7303.187,-187500.016,-187500.016,-187500.016,-187500.016][-2375.342,2163.537,2663.389,7373.706,-187500.016,-187500.016,-187500.016,-187500.016][-2366.737,2032.310,2728.433,7385.329,-187500.016,-187500.016,-187500.016,-187500.016][-2358.288,2150.819,2674.252,7256.471,-187500.016,-187500.016,-187500.016,-187500.016][-2320.647,2162.509,2599.530,7332.333,-187500.016,-187500.016,-187500.016,-187500.016][-2350.442,2068.341,2569.422,7433.586,-187500.016,-187500.016,-187500.016,-187500.016][-2320.647,2145.164,2620.831,7411.369,-187500.016,-187500.016,-187500.016,-187500.016][-2377.041,2119.459,2570.316,7255.041,-187500.016,-187500.016,-187500.016,-187500.016][-2294.272,2201.222,2666.541,7327.594,-187500.016,-187500.016,-187500.016,-187500.016][-2321.989,2181.888,2668.038,7443.019,-187500.016,-187500.016,-187500.016,-187500.016][-2314.009,2195.366,2680.108,7461.012,-187500.016,-187500.016,-187500.016,-187500.016][-2323.106,2172.858,2659.366,7354.126,-187500.016,-187500.016,-187500.016,-187500.016][-2300.888,2178.244,2619.423,7336.826,-187500.016,-187500.016,-187500.016,-187500.016][-2315.596,2168.544,2672.777,7411.414,-187500.016,-187500.016,-187500.016,-187500.016][-2325.028,2183.408,2657.600,7406.764,-187500.016,-187500.016,-187500.016,-187500.016][-2291.791,2222.434,2670.989,7306.517,-187500.016,-187500.016,-187500.016,-187500.016][-2272.792,2217.852,2681.494,7277.526,-187500.016,-187500.016,-187500.016,-187500.016][-2322.480,2167.717,2649.933,7373.863,-187500.016,-187500.016,-187500.016,-187500.016][-2327.576,2167.091,2683.416,7469.774,-187500.016,-187500.016,-187500.016,-187500.016][-2313.204,2187.968,2678.253,7393.711,-187500.016,-187500.016,-187500.016,-187500.016][-2296.977,2191.231,2651.163,7295.766,-187500.016,-187500.016,-187500.016,-187500.016][-2290.853,2185.688,2658.807,7349.142,-187500.016,-187500.016,-187500.016,-187500.016][-2337.456,2169.438,2679.952,7431.821,-187500.016,-187500.016,-187500.016,-187500.016][-2393.179,2108.976,2635.829,7343.218,-187500.016,-187500.', b'016,-187500.016,-187500.016][-2359.562,2166.107,2677.717,7259.712,-187500.016,-187500.016,-187500.016,-187500.016][-2326.414,2177.708,2666.295,7332.221,-187500.016,-187500.016,-187500.016,-187500.016][-2278.693,2203.681,2642.446,7479.072,-187500.016,-187500.016,-187500.016,-187500.016][-2313.830,2195.701,2680.734,7436.559,-187500.016,-187500.016,-187500.016,-187500.016][-2300.352,2285.376,2675.973,7307.590,-187500.016,-187500.016,-187500.016,-187500.016][-2306.387,2226.301,2589.896,7325.069,-187500.016,-187500.016,-187500.016,-187500.016][-2332.852,2060.875,2638.735,7476.971,-187500.016,-187500.016,-187500.016,-187500.016][-2372.839,2076.835,2585.560,7404.753,-187500.016,-187500.016,-187500.016,-187500.016][-2346.084,2158.374,2601.207,7249.811,-187500.016,-187500.016,-187500.016,-187500.016][-2264.455,2257.615,2721.191,7309.780,-187500.016,-187500.016,-187500.016,-187500.016][-2305.895,2234.034,2716.407,7429.407,-187500.016,-187500.016,-187500.016,-187500.016][-2356.746,2180.748,2665.401,7417.337,-187500.016,-187500.016,-187500.016,-187500.016][-2335.333,2128.244,2646.156,7364.676,-187500.016,-187500.016,-187500.016,-187500.016][-2342.060,2118.297,2579.637,7270.441,-187500.016,-187500.016,-187500.016,-187500.016][-2311.550,2162.017,2650.425,7367.090,-187500.016,-187500.016,-187500.016,-187500.016][-2295.904,2193.734,2707.534,7467.517,-187500.016,-187500.016,-187500.016,-187500.016][-2319.574,2179.988,2669.357,7347.018,-187500.016,-187500.016,-187500.016,-187500.016][-2337.098,2166.778,2664.440,7271.268,-187500.016,-187500.016,-187500.016,-187500.016][-2326.168,2150.685,2681.405,7397.220,-187500.016,-187500.016,-187500.016,-187500.016][-2333.388,2200.395,2671.547,7466.041,-187500.016,-187500.016,-187500.016,-187500.016][-2345.145,2164.521,2633.997,7413.559,-187500.016,-187500.016,-187500.016,-187500.016][-2335.131,2126.813,2599.798,7230.364,-187500.016,-187500.016,-187500.016,-187500.016][-2321.720,2166.197,2623.782,7283.763,-187500.016,-187500.016,-187500.016,-187500.016][-2299.078,2189.711,2692.491,7443.153,-187500.016,-187500.016,-187500.016,-187500.016][-2323.687,2183.944,2652.817,7385.888,-187500.016,-187500.016,-187500.016,-187500.016][-2300.330,2185.956,2661.511,7309.422,-187500.016,-187500.016,-187500.016,-187500.016][-2292.618,2181.441,2676.979,7371.136,-187500.016,-187500.016,-187500.016,-187500.016][-2298.854,2169.416,2654.515,7449.367,-187500.016,-187500.016,-187500.016,-187500.016][-2346.777,2145.656,2590.366,7338.145,-187500.016,-187500.016,-187500.016,-187500.016][-2279.967,2194.204,2650.783,7304.930,-187500.016,-187500.016,-187500.016,-187500.016][-2254.889,2212.107,2707.646,7354.931,-187500.016,-187500.016,-187500.016,-187500.016][-2311.729,2198.875,2704.136,7436.895,-187500.016,-187500.016,-187500.016,-187500.016][-2334.841,2179.876,2663.076,7419.840,-187500.016,-187500.016,-187500.016,-187500.016][-2353.214,2152.451,2623.670,7279.091,-187500.016,-187500.016,-187500.016,-187500.016][-2332.203,2155.356,2616.518,7272.654,-187500.016,-187500.016,-187500.016,-187500.016][-2322.167,2175.138,2663.344,7409.357,-187500.016,-187500.016,-187500.016,-187500.016][-2335.668,2174.556,2687.261,7448.137,-187500.016,-187500.016,-187500.016,-187500.016][-2333.455,2174.221,2652.906,7349.477,-187500.016,-187500.016,-187500.016,-187500.016][-2301.358,2241.209,2678.096,7311.054,-187500.016,-187500.016,-187500.016,-187500.016][-2349.302,2205.558,2701.946,7331.886,-187500.016,-187500.016,-187500.016,-187500.016][-2335.355,2145.432,2653.331,7420.667,-187500.016,-187500.016,-187500.016,-187500.016][-2313.674,2152.495,2645.061,7356.495,-187500.016,-187500.016,-187500.016,-187500.016][-2328.739,2142.705,2645.754,7260.941,-187500.016,-187500.016,-187500.016,-187500.016][-2310.656,2159.491,2660.148,7378.199,-187500.016,-187500.016,-187500.016,-187500.016][-2307.572,2172.522,2694.570,7486.270,-187500.016,-187500.016,-187500.016,-187500.016][-2311.371,2176.993,2646.022,7430.345,-187500.016,-187500.016,-187500.016,-187500.016][-2285.734,2222.657,2665.848,7368.945,-187500.016,-187500.016,-187500.016,-187500.016][-2327.487,2177.350,2676.3']
INDEX_b'4.006884574890137'___FLEX_[b'309,399,395,372,416\n309,398,393,372,418\n308,399,395,373,419\n309,399,395,373,418\n309,399,395,374,419\n308,399,395,375,418\n308,399,395,375,417\n309,399,395,376,418\n309,399,395,375,419\n309,399,395,376,418\n308,400,396,376,418\n310,399,396,377,418\n309,398,396,377,418\n310,399,396,378,418\n309,398,396,378,418\n310,399,396,378,418\n309,399,395,379,418\n309,398,396,379,419\n309,398,395,379,419\n309,399,397,380,418\n308,397,397,380,418\n309,399,396,381,418\n308,399,396,381,419\n309,399,396,381,418\n309,399,396,381,419\n309,398,396,382,418\n309,399,397,381,418\n309,399,397,382,418\n309,398,395,383,417\n310,398,395,383,419\n309,399,396,380,418\n309,399,397,383,419\n308,398,397,383,418\n309,399,396,383,418\n309,399,397,383,419\n310,399,397,383,418\n309,398,397,383,418\n309,397,397,384,417\n309,401,397,384,419\n309,399,398,384,418\n309,399,398,385,418\n309,399,397,383,418\n308,399,398,384,418\n309,399,397,385,418\n309,399,398,385,418\n310,398,398,385,418\n309,398,398,385,419\n309,398,398,385,419\n310,399,397,385,419\n309,399,397,384,418\n', b'310,398,398,386,416\n310,399,398,386,418\n309,399,397,385,419\n310,399,398,385,418\n307,400,398,385,418\n310,399,398,386,418\n310,399,398,386,418\n309,399,399,386,419\n309,399,398,386,418\n310,398,398,386,418\n309,399,398,386,419\n310,399,398,387,419\n310,398,399,386,419\n309,399,398,387,419\n309,398,399,386,419\n309,399,399,387,419\n310,398,399,387,419\n309,399,400,387,418\n309,399,399,387,418\n309,399,399,388,418\n310,399,399,386,418\n310,399,399,387,418\n310,398,398,387,418\n311,399,399,388,419\n310,399,398,387,418\n310,399,396,388,418\n310,399,399,388,419\n310,399,399,387,418\n310,399,399,387,419\n309,398,399,387,418\n310,397,401,387,420\n310,398,400,388,418\n310,399,399,387,419\n310,399,399,388,418\n310,399,399,388,419\n310,399,399,387,419\n310,398,400,388,419\n310,400,400,388,418\n310,399,399,388,419\n310,399,399,388,419\n310,398,399,388,418\n311,399,400,388,419\n310,399,399,387,419\n309,399,400,388,419\n310,400,401,387,419\n310,399,399,388,418\n310,398,401,388,418\n311,399,399,389,419\n311,398,399,388,418\n310,399,400,389,418\n', b'310,399,400,389,419\n309,399,400,389,419\n310,399,400,389,419\n310,399,400,389,419\n310,398,400,388,419\n311,398,400,389,419\n310,399,400,388,419\n311,399,399,389,419\n311,399,400,389,418\n311,399,400,388,419\n310,399,400,389,418\n311,399,400,389,419\n310,399,400,389,419\n310,399,401,389,418\n310,398,400,389,419\n310,397,400,389,418\n310,399,400,389,419\n311,399,400,389,418\n311,399,401,389,419\n311,398,401,389,418\n312,399,400,389,419\n310,399,401,390,419\n311,399,400,389,418\n311,399,400,390,419\n310,398,400,389,419\n311,399,400,389,420\n310,399,401,389,419\n311,399,401,389,419\n311,399,401,389,420\n311,399,401,389,419\n311,399,400,388,418\n311,399,400,389,418\n312,399,401,389,419\n311,399,401,389,420\n310,398,401,389,419\n311,398,401,390,417\n311,399,401,390,419\n312,399,401,389,419\n311,399,400,389,419\n311,398,401,389,419\n311,399,402,389,418\n311,398,401,389,419\n311,398,401,390,419\n311,399,402,389,418\n310,398,401,390,419\n312,399,401,390,420\n311,399,401,390,419\n311,399,401,390,419\n310,398,401,390,419\n311,399,402,390,419\n', b'311,398,401,390,419\n311,399,402,390,419\n311,399,401,390,419\n311,399,402,389,419\n311,398,402,390,419\n310,398,401,391,418\n311,399,402,390,419\n311,399,401,390,420\n311,399,401,391,419\n311,399,401,390,418\n311,399,402,391,419\n311,399,403,389,419\n311,399,402,390,419\n309,399,402,391,419\n310,399,403,390,419\n311,399,403,391,419\n311,398,402,390,419\n311,398,402,391,419\n311,399,403,391,419\n311,399,402,391,420\n310,399,403,390,419\n312,399,402,390,418\n311,399,403,391,419\n311,399,403,392,418\n311,399,403,391,420\n311,399,403,391,419\n311,399,403,391,419\n312,398,403,391,420\n310,399,403,391,419\n311,399,403,391,418\n311,399,403,391,419\n311,399,403,391,419\n310,399,404,391,419\n312,399,404,391,419\n311,399,403,391,419\n311,399,404,391,419\n310,399,404,391,419\n312,399,404,392,419\n312,398,404,391,419\n312,399,404,392,419\n310,399,404,391,419\n311,399,404,392,419\n312,399,404,391,418\n311,398,404,391,419\n311,399,404,392,419\n312,399,405,392,420\n311,399,405,392,419\n312,399,404,392,419\n311,399,404,392,419\n311,399,405,391,420\n']___EMG_[b'75,7317.536,-187500.016,-187500.016,-187500.016,-187500.016][-2324.604,2154.328,2686.411,7414.632,-187500.016,-187500.016,-187500.016,-187500.016][-2316.244,2152.093,2690.345,7398.740,-187500.016,-187500.016,-187500.016,-187500.016][-2331.063,2134.234,2599.754,7349.164,-187500.016,-187500.016,-187500.016,-187500.016][-2336.472,2156.787,2630.599,7283.405,-187500.016,-187500.016,-187500.016,-187500.016][-2322.570,2171.472,2685.182,7377.081,-187500.016,-187500.016,-187500.016,-187500.016][-2308.734,2160.274,2641.931,7360.116,-187500.016,-187500.016,-187500.016,-187500.016][-2302.140,2190.158,2627.626,7281.773,-187500.016,-187500.016,-187500.016,-187500.016][-2327.688,2173.260,2653.577,7304.684,-187500.016,-187500.016,-187500.016,-187500.016][-2345.190,2138.011,2642.311,7421.695,-187500.016,-187500.016,-187500.016,-187500.016][-2305.493,2175.048,2693.877,7397.689,-187500.016,-187500.016,-187500.016,-187500.016][-2263.293,2214.007,2703.019,7303.164,-187500.016,-187500.016,-187500.016,-187500.016][-2307.013,2182.000,2660.304,7295.006,-187500.016,-187500.016,-187500.016,-187500.016][-2306.968,2168.544,2667.502,7402.875,-187500.016,-187500.016,-187500.016,-187500.016][-2320.781,2173.148,2685.964,7449.121,-187500.016,-187500.016,-187500.016,-187500.016][-2324.581,2172.701,2659.366,7345.252,-187500.016,-187500.016,-187500.016,-187500.016][-2302.542,2196.036,2663.836,7292.413,-187500.016,-187500.016,-187500.016,-187500.016][-2326.727,2154.417,2683.327,7364.430,-187500.016,-187500.016,-187500.016,-187500.016][-2353.996,2132.535,2672.084,7411.816,-187500.016,-187500.016,-187500.016,-187500.016][-2311.461,2190.001,2673.023,7373.684,-187500.016,-187500.016,-187500.016,-187500.016][-2304.889,2191.343,2661.489,7299.431,-187500.016,-187500.016,-187500.016,-187500.016][-2314.411,2174.959,2666.585,7378.333,-187500.016,-187500.016,-187500.016,-187500.016][-2330.661,2154.552,2695.956,7488.527,-187500.016,-187500.016,-187500.016,-187500.016][-2339.959,2148.986,2723.985,7363.625,-187500.016,-187500.016,-187500.016,-187500.016][-2342.664,2152.652,2683.394,7251.934,-187500.016,-187500.016,-187500.016,-187500.016][-2345.458,2154.887,2613.500,7299.252,-187500.016,-187500.016,-187500.016,-187500.016][-2311.081,2170.533,2650.448,7427.395,-187500.016,-187500.016,-187500.016,-187500.016][-2295.345,2187.811,2632.186,7397.175,-187500.016,-187500.016,-187500.016,-187500.016][-2273.865,2201.356,2664.305,7337.273,-187500.016,-187500.016,-187500.016,-187500.016][-2287.053,2199.143,2678.700,7362.173,-187500.016,-187500.016,-187500.016,-187500.016][-2330.594,2150.238,2637.193,7431.061,-187500.016,-187500.016,-187500.016,-187500.016][-2326.727,2152.920,2666.742,7472.903,-187500.016,-187500.016,-187500.016,-187500.016][-2303.682,2188.459,2657.935,7320.129,-187500.016,-187500.016,-187500.016,-187500.016][-2307.460,2187.409,2653.644,7254.616,-187500.016,-187500.016,-187500.016,-187500.016][-2301.894,2179.206,2670.094,7414.297,-187500.016,-187500.016,-187500.016,-187500.016][-2295.614,2191.298,2684.489,7411.860,-187500.016,-187500.016,-187500.016,-187500.016][-2294.563,2199.836,2667.412,7300.594,-187500.016,-187500.016,-187500.016,-187500.016][-2300.486,2198.965,2677.135,7297.822,-187500.016,-187500.016,-187500.016,-187500.016][-2308.510,2177.373,2693.340,7422.098,-187500.016,-187500.016,-187500.016,-187500.016][-2307.728,2167.896,2676.934,7452.250,-187500.016,-187500.016,-187500.016,-187500.016][-2317.049,2173.752,2665.602,7330.321,-187500.016,-187500.016,-187500.016,-187500.016][-2295.412,2193.041,2667.815,7282.712,-187500.016,-187500.016,-187500.016,-187500.016][-2289.266,2185.889,2688.825,7397.623,-187500.016,-187500.016,-187500.016,-187500.016][-2316.535,2170.489,2664.864,7421.002,-187500.016,-187500.016,-187500.016,-187500.016][-2322.056,2168.790,2639.271,7324.711,-187500.016,-187500.016,-187500.016,-187500.016][-2332.986,2160.587,2624.832,7263.512,-187500.016,-187500.016,-187500.016,-187500.016][-2345.167,2145.276,2655.030,7332.914,-187500.016,-187500.016,-187500.016,-187500.016][-2353.057,2138.414,2658.472,7425.495,-187500.016,-187500.016,-187500.016,-18750', b'0.016][-2347.917,2145.477,2685.763,7382.759,-187500.016,-187500.016,-187500.016,-187500.016][-2319.798,2167.091,2668.955,7280.633,-187500.016,-187500.016,-187500.016,-187500.016][-2272.211,2215.818,2683.193,7378.266,-187500.016,-187500.016,-187500.016,-187500.016][-2296.239,2191.320,2689.943,7445.925,-187500.016,-187500.016,-187500.016,-187500.016][-2292.127,2197.713,2695.553,7382.133,-187500.016,-187500.016,-187500.016,-187500.016][-2297.334,2191.566,2619.110,7291.720,-187500.016,-187500.016,-187500.016,-187500.016][-2315.328,2160.318,2636.589,7356.473,-187500.016,-187500.016,-187500.016,-187500.016][-2290.674,2180.547,2703.622,7484.839,-187500.016,-187500.016,-187500.016,-187500.016][-2280.012,2194.986,2683.327,7406.317,-187500.016,-187500.016,-187500.016,-187500.016][-2317.518,2170.958,2629.884,7275.023,-187500.016,-187500.016,-187500.016,-187500.016][-2313.182,2180.345,2667.993,7314.094,-187500.016,-187500.016,-187500.016,-187500.016][-2298.318,2190.270,2721.437,7443.443,-187500.016,-187500.016,-187500.016,-187500.016][-2312.221,2166.510,2686.076,7420.086,-187500.016,-187500.016,-187500.016,-187500.016][-2327.331,2157.122,2621.167,7296.458,-187500.016,-187500.016,-187500.016,-187500.016][-2317.272,2168.991,2663.434,7301.465,-187500.016,-187500.016,-187500.016,-187500.016][-2311.997,2180.167,2712.250,7422.098,-187500.016,-187500.016,-187500.016,-187500.016][-2348.609,2138.593,2654.873,7381.842,-187500.016,-187500.016,-187500.016,-187500.016][-2295.211,2189.554,2685.383,7358.708,-187500.016,-187500.016,-187500.016,-187500.016][-2281.845,2204.418,2691.239,7306.025,-187500.016,-187500.016,-187500.016,-187500.016][-2301.045,2193.019,2674.051,7376.902,-187500.016,-187500.016,-187500.016,-187500.016][-2313.987,2165.638,2650.716,7463.448,-187500.016,-187500.016,-187500.016,-187500.016][-2266.377,2201.289,2691.955,7345.163,-187500.016,-187500.016,-187500.016,-187500.016][-2292.752,2200.931,2692.893,7246.078,-187500.016,-187500.016,-187500.016,-187500.016][-2299.033,2188.281,2702.058,7350.572,-187500.016,-187500.016,-187500.016,-187500.016][-2303.325,2193.064,2687.015,7442.885,-187500.016,-187500.016,-187500.016,-187500.016][-2331.734,2163.828,2632.477,7347.711,-187500.016,-187500.016,-187500.016,-187500.016][-2330.773,2162.978,2620.921,7261.813,-187500.016,-187500.016,-187500.016,-187500.016][-2284.594,2200.060,2708.383,7382.558,-187500.016,-187500.016,-187500.016,-187500.016][-2299.525,2167.091,2699.889,7468.746,-187500.016,-187500.016,-187500.016,-187500.016][-2313.115,2162.665,2703.175,7427.239,-187500.016,-187500.016,-187500.016,-187500.016][-2300.173,2199.613,2705.500,7284.456,-187500.016,-187500.016,-187500.016,-187500.016][-2310.142,2184.235,2680.265,7287.853,-187500.016,-187500.016,-187500.016,-187500.016][-2299.816,2182.044,2686.992,7416.800,-187500.016,-187500.016,-187500.016,-187500.016][-2285.533,2200.261,2685.920,7430.122,-187500.016,-187500.016,-187500.016,-187500.016][-2298.139,2200.954,2671.659,7314.161,-187500.016,-187500.016,-187500.016,-187500.016][-2300.687,2185.934,2699.666,7343.464,-187500.016,-187500.016,-187500.016,-187500.016][-2318.859,2153.456,2686.635,7466.645,-187500.016,-187500.016,-187500.016,-187500.016][-2315.551,2162.352,2629.884,7422.925,-187500.016,-187500.016,-187500.016,-187500.016][-2268.300,2217.136,2671.726,7291.653,-187500.016,-187500.016,-187500.016,-187500.016][-2280.571,2209.716,2689.719,7264.674,-187500.016,-187500.016,-187500.016,-187500.016][-2291.031,2189.420,2685.651,7394.583,-187500.016,-187500.016,-187500.016,-187500.016][-2287.455,2187.453,2691.686,7440.649,-187500.016,-187500.016,-187500.016,-187500.016][-2289.467,2193.578,2681.628,7329.249,-187500.016,-187500.016,-187500.016,-187500.016][-2297.223,2171.449,2651.207,7286.311,-187500.016,-187500.016,-187500.016,-187500.016][-2331.376,2162.375,2668.664,7361.882,-187500.016,-187500.016,-187500.016,-187500.016][-2315.819,2182.290,2712.876,7461.303,-187500.016,-187500.016,-187500.016,-187500.016][-2299.056,2191.119,2702.080,7353.076,-187500.016,-187500.016,-187500.016,-187500.016][-2285.041,2205.290,2702.840,7290.043,-187500.01']
