INDEX_b'0.40192675590515137'___FLEX_[]___EMG_[b'[-2582.990,2148.874,3614.746,6508.671,-187500.016,-187500.016,-187500.016,-187500.016][-2582.051,2159.268,3630.281,6397.359,-187500.016,-187500.016,-187500.016,-187500.016][-2575.569,2164.051,3694.520,6461.531,-187500.016,-187500.016,-187500.016,-187500.016][-2601.162,2133.496,3679.790,6553.308,-187500.016,-187500.016,-187500.016,-187500.016][-2589.427,2141.901,3606.946,6517.947,-187500.016,-187500.016,-187500.016,-187500.016][-2575.949,2156.943,3605.895,6413.006,-187500.016,-187500.016,-187500.016,-187500.016][-2578.520,2153.233,3638.774,6457.285,-187500.016,-187500.016,-187500.016,-187500.016][-2588.153,2147.153,3667.631,6569.378,-187500.016,-187500.016,-187500.016,-187500.016][-2610.035,2127.998,3649.168,6507.889,-187500.016,-187500.016,-187500.016,-187500.016][-2590.209,2146.974,3630.884,6410.391,-187500.016,-187500.016,-187500.016,-187500.016][-2591.573,2150.081,3670.201,6577.247,-187500.016,-187500.016,-187500.016,-187500.016][-2593.093,2150.864,3661.171,6583.125,-187500.016,-187500.016,-187500.016,-187500.016][-2595.194,2152.384,3629.923,6448.880,-187500.016,-187500.016,-187500.016,-187500.016][-2595.730,2145.142,3634.997,6442.309,-187500.016,-187500.016,-187500.016,-187500.016][-2604.448,2125.293,3651.895,6549.284,-187500.016,-187500.016,-187500.016,-187500.016][-2599.865,2136.581,3645.815,6556.728,-187500.016,-187500.016,-187500.016,-187500.016][-2609.521,2140.045,3622.480,6452.747,-187500.016,-187500.016,-187500.016,-187500.016][-2613.053,2140.939,3653.795,6426.685,-187500.016,-187500.016,-187500.016,-187500.016][-2605.252,2154.462,3684.551,6530.196,-187500.016,-187500.016,-187500.016,-187500.016][-2614.193,2143.219,3661.238,6569.558,-187500.016,-187500.016,-187500.016,-187500.016][-2613.768,2142.281,3649.458,6462.917,-187500.016,-187500.016,-187500.016,-187500.016][-2634.712,2113.603,3627.084,6379.434,-187500.016,-187500.016,-187500.016,-187500.016][-2621.882,2126.969,3633.589,6498.993,-187500.016,-187500.016,-187500.016,-187500.016][-2624.497,2140.649,3686.361,6599.375,-187500.016,-187500.016,-187500.016,-187500.016][-2630.040,2130.881,3631.376,6489.225,-187500.016,-187500.016,-187500.016,-187500.016][-2610.326,2148.315,3660.769,6415.487,-187500.016,-187500.016,-187500.016,-187500.016][-2625.861,2135.016,3666.826,6484.151,-187500.016,-187500.016,-187500.016,-187500.016][-2618.261,2137.743,3640.965,6599.956,-187500.016,-187500.016,-187500.016,-187500.016][-2616.763,2141.118,3643.133,6527.894,-187500.016,-187500.016,-187500.016,-187500.016][-2610.058,2147.466,3630.750,6421.566,-187500.016,-187500.016,-187500.016,-187500.016][-2626.129,2142.102,3657.282,6474.451,-187500.016,-187500.016,-187500.016,-187500.016][-2640.792,2123.684,3671.006,6584.779,-187500.016,-187500.016,-187500.016,-187500.016][-2629.951,2121.672,3639.266,6553.442,-187500.016,-187500.016,-187500.016,-187500.016][-2616.719,2138.503,3649.235,6452.077,-187500.016,-187500.016,-187500.016,-187500.016][-2610.371,2145.276,3671.743,6466.225,-187500.016,-187500.016,-187500.016,-187500.016][-2629.683,2122.678,3669.799,6574.229,-187500.016,-187500.016,-187500.016,-187500.016][-2648.413,2125.539,3669.195,6590.658,-187500.016,-187500.016,-187500.016,-187500.016][-2646.916,2129.987,3650.308,6436.967,-187500.016,-187500.016,-187500.016,-187500.016][-2656.527,2123.662,3631.287,6409.944,-187500.016,-187500.016,-187500.016,-187500.016][-2648.436,2126.522,3663.361,6544.210,-187500.016,-187500.016,-187500.016,-187500.016][-2669.938,2100.371,3642.574,6551.721,-187500.016,-187500.016,-187500.016,-187500.016][-2648.190,2126.947,3652.364,6462.202,-187500.016,-187500.016,-187500.016,-187500.016][-2646.581,2134.435,3645.681,6419.175,-187500.016,-187500.016,-187500.016,-187500.016][-2643.272,2129.428,3656.500,6535.516,-187500.016,-187500.016,-187500.016,-187500.016][-2656.035,2113.380,3658.176,6591.440,-187500.016,-187500.016,-187500.016,-187500.016][-2632.343,2130.188,3647.693,6500.088,-187500.016,-187500.016,-187500.016,-187500.016][-2623.245,2145.969,3654.197,6436.453,-187500.016,-187500.016,-187500.016,-187500.016][-2639.428,2122.946,3657.058,6517.254,-187500.016,-187', b'500.016,-187500.016,-187500.016][-2658.181,2120.309,3676.594,6593.474,-187500.016,-187500.016,-187500.016,-187500.016][-2667.278,2123.483,3662.802,6503.620,-187500.016,-187500.016,-187500.016,-187500.016][-2658.986,2129.205,3654.018,6423.333,-187500.016,-187500.016,-187500.016,-187500.016][-2656.549,2120.689,3660.612,6497.451,-187500.016,-187500.016,-187500.016,-187500.016][-2675.034,2102.181,3661.707,6598.860,-187500.016,-187500.016,-187500.016,-187500.016][-2666.988,2117.202,3660.903,6537.773,-187500.016,-187500.016,-187500.016,-187500.016][-2650.448,2133.943,3665.105,6452.680,-187500.016,-187500.016,-187500.016,-187500.016][-2654.650,2135.307,3673.174,6478.340,-187500.016,-187500.016,-187500.016,-187500.016][-2683.506,2103.992,3668.882,6581.001,-187500.016,-187500.016,-187500.016,-187500.016][-2663.344,2119.526,3675.498,6565.244,-187500.016,-187500.016,-187500.016,-187500.016][-2671.480,2113.536,3663.518,6428.116,-187500.016,-187500.016,-187500.016,-187500.016][-2693.139,2099.075,3652.409,6418.728,-187500.016,-187500.016,-187500.016,-187500.016][-2670.966,2114.609,3679.298,6580.152,-187500.016,-187500.016,-187500.016,-187500.016][-2664.529,2115.280,3681.153,6585.382,-187500.016,-187500.016,-187500.016,-187500.016][-2665.959,2135.731,3643.066,6459.050,-187500.016,-187500.016,-187500.016,-187500.016][-2685.383,2116.800,3635.712,6442.756,-187500.016,-187500.016,-187500.016,-187500.016][-2690.167,2103.433,3675.990,6549.709,-187500.016,-187500.016,-187500.016,-187500.016][-2696.157,2105.512,3690.116,6578.744,-187500.016,-187500.016,-187500.016,-187500.016][-2694.816,2107.054,3658.489,6473.981,-187500.016,-187500.016,-187500.016,-187500.016][-2641.887,2143.488,3669.620,6463.409,-187500.016,-187500.016,-187500.016,-187500.016][-2650.514,2132.535,3692.642,6568.641,-187500.016,-187500.016,-187500.016,-187500.016][-2672.911,2122.052,3691.949,6619.089,-187500.016,-187500.016,-187500.016,-187500.016][-2694.704,2105.378,3650.911,6485.671,-187500.016,-187500.016,-187500.016,-187500.016][-2692.603,2112.866,3648.609,6421.723,-187500.016,-187500.016,-187500.016,-187500.016][-2693.877,2110.362,3684.417,6537.639,-187500.016,-187500.016,-187500.016,-187500.016][-2684.422,2111.569,3677.845,6611.690,-187500.016,-187500.016,-187500.016,-187500.016][-2668.999,2128.646,3670.693,6536.678,-187500.016,-187500.016,-187500.016,-187500.016][-2678.186,2130.613,3661.730,6428.764,-187500.016,-187500.016,-187500.016,-187500.016][-2713.591,2094.939,3656.723,6478.452,-187500.016,-187500.016,-187500.016,-187500.016][-2727.852,2076.365,3664.904,6571.323,-187500.016,-187500.016,-187500.016,-187500.016][-2697.229,2115.213,3684.439,6531.939,-187500.016,-187500.016,-187500.016,-187500.016][-2689.541,2126.657,3658.600,6427.222,-187500.016,-187500.016,-187500.016,-187500.016][-2701.946,2117.336,3698.901,6476.417,-187500.016,-187500.016,-187500.016,-187500.016][-2698.504,2107.389,3713.966,6599.106,-187500.016,-187500.016,-187500.016,-187500.016][-2700.471,2107.434,3658.667,6569.356,-187500.016,-187500.016,-187500.016,-187500.016][-2692.983,2117.515,3657.416,6455.698,-187500.016,-187500.016,-187500.016,-187500.016][-2690.167,2115.906,3668.435,6476.328,-187500.016,-187500.016,-187500.016,-187500.016][-2720.364,2087.005,3673.308,6576.688,-187500.016,-187500.016,-187500.016,-187500.016][-2722.778,2081.998,3676.705,6575.950,-187500.016,-187500.016,-187500.016,-187500.016][-2680.220,2123.505,3686.831,6499.194,-187500.016,-187500.016,-187500.016,-187500.016][-2687.104,2115.972,3672.727,6470.919,-187500.016,-187500.016,-187500.016,-187500.016][-2729.081,2096.705,3685.244,6551.989,-187500.016,-187500.016,-187500.016,-187500.016][-2744.034,2093.509,3684.819,6576.129,-187500.016,-187500.016,-187500.016,-187500.016][-2725.370,2103.835,3676.370,6474.361,-187500.016,-187500.016,-187500.016,-187500.016][-2722.040,2106.071,3666.334,6430.574,-187500.016,-187500.016,-187500.016,-187500.016][-2716.296,2111.189,3694.162,6557.331,-187500.016,-187500.016,-187500.016,-187500.016][-2719.179,2104.216,3697.068,6616.809,-187500.016,-187500.016,-187500.016,-187500.016][-2711.289,2118.677,36']
INDEX_b'0.8038525581359863'___FLEX_[]___EMG_[b'98.610,6509.409,-187500.016,-187500.016,-187500.016,-187500.016][-2714.731,2114.073,3678.225,6428.361,-187500.016,-187500.016,-187500.016,-187500.016][-2747.409,2079.226,3679.187,6494.522,-187500.016,-187500.016,-187500.016,-187500.016][-2764.955,2061.501,3684.171,6579.973,-187500.016,-187500.016,-187500.016,-187500.016][-2745.174,2082.713,3689.289,6535.605,-187500.016,-187500.016,-187500.016,-187500.016][-2708.830,2118.677,3684.618,6444.455,-187500.016,-187500.016,-187500.016,-187500.016][-2709.613,2121.046,3699.862,6519.132,-187500.016,-187500.016,-187500.016,-187500.016][-2749.980,2095.767,3713.049,6594.726,-187500.016,-187500.016,-187500.016,-187500.016][-2735.988,2097.912,3686.428,6539.249,-187500.016,-187500.016,-187500.016,-187500.016][-2713.770,2113.402,3647.000,6442.778,-187500.016,-187500.016,-187500.016,-187500.016][-2739.474,2089.575,3671.073,6492.466,-187500.016,-187500.016,-187500.016,-187500.016][-2746.381,2084.121,3690.698,6600.537,-187500.016,-187500.016,-187500.016,-187500.016][-2727.069,2107.479,3706.858,6572.485,-187500.016,-187500.016,-187500.016,-187500.016][-2736.569,2106.719,3681.511,6449.350,-187500.016,-187500.016,-187500.016,-187500.016][-2722.353,2104.797,3686.764,6473.378,-187500.016,-187500.016,-187500.016,-187500.016][-2726.309,2100.907,3721.431,6596.357,-187500.016,-187500.016,-187500.016,-187500.016][-2751.589,2091.475,3704.533,6578.163,-187500.016,-187500.016,-187500.016,-187500.016][-2739.743,2097.667,3670.291,6462.582,-187500.016,-187500.016,-187500.016,-187500.016][-2752.885,2086.803,3683.903,6451.965,-187500.016,-187500.016,-187500.016,-187500.016][-2760.418,2075.717,3707.685,6574.117,-187500.016,-187500.016,-187500.016,-187500.016][-2753.422,2082.467,3690.966,6602.794,-187500.016,-187500.016,-187500.016,-187500.016][-2745.979,2094.470,3685.758,6476.105,-187500.016,-187500.016,-187500.016,-187500.016][-2747.499,2103.903,3696.263,6439.358,-187500.016,-187500.016,-187500.016,-187500.016][-2766.677,2079.494,3723.532,6548.279,-187500.016,-187500.016,-187500.016,-187500.016][-2768.442,2070.219,3705.897,6610.931,-187500.016,-187500.016,-187500.016,-187500.016][-2762.161,2079.919,3693.335,6525.234,-187500.016,-187500.016,-187500.016,-187500.016][-2773.807,2072.543,3680.975,6428.272,-187500.016,-187500.016,-187500.016,-187500.016][-2776.802,2069.503,3673.375,6529.280,-187500.016,-187500.016,-187500.016,-187500.016][-2754.271,2087.608,3688.686,6615.222,-187500.016,-187500.016,-187500.016,-187500.016][-2733.216,2104.618,3703.885,6539.182,-187500.016,-187500.016,-187500.016,-187500.016][-2750.136,2103.791,3695.391,6434.352,-187500.016,-187500.016,-187500.016,-187500.016][-2775.304,2078.623,3692.128,6499.284,-187500.016,-187500.016,-187500.016,-187500.016][-2775.841,2077.349,3732.808,6616.585,-187500.016,-187500.016,-187500.016,-187500.016][-2769.023,2090.357,3736.541,6545.686,-187500.016,-187500.016,-187500.016,-187500.016][-2755.434,2104.238,3658.891,6449.328,-187500.016,-187500.016,-187500.016,-187500.016][-2754.428,2098.717,3688.440,6506.749,-187500.016,-187500.016,-187500.016,-187500.016][-2765.693,2084.188,3709.451,6628.074,-187500.016,-187500.016,-187500.016,-187500.016][-2766.073,2082.579,3697.939,6590.613,-187500.016,-187500.016,-187500.016,-187500.016][-2775.394,2077.349,3662.646,6447.629,-187500.016,-187500.016,-187500.016,-187500.016][-2764.262,2093.464,3709.965,6477.625,-187500.016,-187500.016,-187500.016,-187500.016][-2779.082,2074.711,3726.773,6599.978,-187500.016,-187500.016,-187500.016,-187500.016][-2760.351,2080.746,3703.840,6599.308,-187500.016,-187500.016,-187500.016,-187500.016][-2772.890,2082.646,3682.875,6472.082,-187500.016,-187500.016,-187500.016,-187500.016][-2807.580,2066.776,3694.006,6438.174,-187500.016,-187500.016,-187500.016,-187500.016][-2801.210,2052.516,3708.892,6562.628,-187500.016,-187500.016,-187500.016,-187500.016][-2785.497,2068.721,3703.259,6597.855,-187500.016,-187500.016,-187500.016,-187500.016][-2763.659,2105.288,3720.895,6501.407,-187500.016,-187500.016,-187500.016,-187500.016][-2781.317,2089.396,3706.165,6466.069,-187500.016,-187500.016,-187500.016,-1', b'87500.016][-2792.672,2075.628,3719.531,6553.732,-187500.016,-187500.016,-187500.016,-187500.016][-2785.698,2086.021,3731.490,6614.507,-187500.016,-187500.016,-187500.016,-187500.016][-2766.520,2096.906,3675.945,6523.423,-187500.016,-187500.016,-187500.016,-187500.016][-2759.859,2092.637,3687.121,6451.272,-187500.016,-187500.016,-187500.016,-187500.016][-2786.726,2076.231,3720.582,6535.136,-187500.016,-187500.016,-187500.016,-187500.016][-2798.237,2075.940,3732.182,6624.543,-187500.016,-187500.016,-187500.016,-187500.016][-2796.158,2079.427,3689.178,6528.453,-187500.016,-187500.016,-187500.016,-187500.016][-2803.624,2073.840,3676.817,6433.905,-187500.016,-187500.016,-187500.016,-187500.016][-2787.128,2078.712,3700.085,6519.579,-187500.016,-187500.016,-187500.016,-187500.016][-2782.814,2075.359,3751.830,6638.490,-187500.016,-187500.016,-187500.016,-187500.016][-2783.239,2078.690,3729.746,6570.429,-187500.016,-187500.016,-187500.016,-187500.016][-2792.806,2084.613,3681.399,6450.266,-187500.016,-187500.016,-187500.016,-187500.016][-2790.861,2080.187,3702.633,6499.261,-187500.016,-187500.016,-187500.016,-187500.016][-2801.076,2065.435,3721.476,6608.002,-187500.016,-187500.016,-187500.016,-187500.016][-2791.956,2071.783,3721.051,6581.717,-187500.016,-187500.016,-187500.016,-187500.016][-2790.705,2067.626,3676.392,6470.115,-187500.016,-187500.016,-187500.016,-187500.016][-2791.241,2073.191,3710.747,6501.184,-187500.016,-187500.016,-187500.016,-187500.016][-2789.095,2078.869,3741.391,6624.230,-187500.016,-187500.016,-187500.016,-187500.016][-2800.048,2069.257,3718.324,6606.259,-187500.016,-187500.016,-187500.016,-187500.016][-2789.788,2085.932,3708.691,6483.324,-187500.016,-187500.016,-187500.016,-187500.016][-2794.080,2084.524,3721.297,6469.936,-187500.016,-187500.016,-187500.016,-187500.016][-2822.042,2057.277,3738.284,6550.469,-187500.016,-187500.016,-187500.016,-187500.016][-2831.027,2050.527,3720.113,6590.054,-187500.016,-187500.016,-187500.016,-187500.016][-2794.795,2081.908,3702.253,6511.689,-187500.016,-187500.016,-187500.016,-187500.016][-2787.844,2079.092,3710.121,6452.122,-187500.016,-187500.016,-187500.016,-187500.016][-2808.541,2062.731,3728.249,6556.213,-187500.016,-187500.016,-187500.016,-187500.016][-2821.505,2054.997,3723.778,6611.802,-187500.016,-187500.016,-187500.016,-187500.016][-2812.654,2065.435,3712.379,6519.981,-187500.016,-187500.016,-187500.016,-187500.016][-2817.817,2062.552,3719.844,6453.574,-187500.016,-187500.016,-187500.016,-187500.016][-2855.078,2023.950,3703.281,6509.163,-187500.016,-187500.016,-187500.016,-187500.016][-2838.090,2041.094,3723.309,6625.548,-187500.016,-187500.016,-187500.016,-187500.016][-2770.476,2100.930,3745.862,6580.666,-187500.016,-187500.016,-187500.016,-187500.016][-2784.088,2090.067,3708.065,6474.786,-187500.016,-187500.016,-187500.016,-187500.016][-2793.744,2076.768,3733.166,6540.947,-187500.016,-187500.016,-187500.016,-187500.016][-2811.022,2057.836,3726.885,6622.665,-187500.016,-187500.016,-187500.016,-187500.016][-2825.976,2052.024,3706.433,6554.380,-187500.016,-187500.016,-187500.016,-187500.016][-2819.561,2070.576,3706.210,6453.083,-187500.016,-187500.016,-187500.016,-187500.016][-2833.911,2053.790,3727.511,6492.042,-187500.016,-187500.016,-187500.016,-187500.016][-2836.526,2045.833,3747.136,6600.805,-187500.016,-187500.016,-187500.016,-187500.016][-2831.452,2057.858,3729.411,6573.536,-187500.016,-187500.016,-187500.016,-187500.016][-2821.326,2063.468,3715.374,6467.834,-187500.016,-187500.016,-187500.016,-187500.016][-2819.382,2060.898,3731.422,6489.158,-187500.016,-187500.016,-187500.016,-187500.016][-2843.075,2038.211,3771.432,6593.608,-187500.016,-187500.016,-187500.016,-187500.016][-2854.050,2028.711,3743.224,6605.432,-187500.016,-187500.016,-187500.016,-187500.016][-2838.984,2046.771,3705.092,6461.420,-187500.016,-187500.016,-187500.016,-187500.016][-2798.975,2078.891,3694.542,6461.800,-187500.016,-187500.016,-187500.016,-187500.016][-2799.914,2066.732,3715.709,6594.837,-187500.016,-187500.016,-187500.016,-187500.016][-2788.693,2073.705,3752.321,6642.603,-18750']
INDEX_b'1.2048108577728271'___FLEX_[b'\x9d']___EMG_[b'0.016,-187500.016,-187500.016,-187500.016][-2805.233,2071.381,3732.473,6521.658,-187500.016,-187500.016,-187500.016,-187500.016][-2818.041,2071.761,3718.972,6456.704,-187500.016,-187500.016,-187500.016,-187500.016][-2838.984,2045.497,3733.367,6553.688,-187500.016,-187500.016,-187500.016,-187500.016][-2846.696,2038.278,3746.666,6624.006,-187500.016,-187500.016,-187500.016,-187500.016][-2837.487,2044.179,3723.331,6524.563,-187500.016,-187500.016,-187500.016,-187500.016][-2839.521,2045.095,3722.862,6443.359,-187500.016,-187500.016,-187500.016,-187500.016][-2840.258,2050.996,3737.145,6531.828,-187500.016,-187500.016,-187500.016,-187500.016][-2829.328,2051.085,3747.985,6635.741,-187500.016,-187500.016,-187500.016,-187500.016][-2813.503,2056.495,3736.005,6571.055,-187500.016,-187500.016,-187500.016,-187500.016][-2810.754,2065.323,3735.066,6477.938,-187500.016,-187500.016,-187500.016,-187500.016][-2823.830,2053.477,3764.123,6541.350,-187500.016,-187500.016,-187500.016,-187500.016][-2841.756,2036.110,3755.920,6632.031,-187500.016,-187500.016,-187500.016,-187500.016][-2857.581,2026.923,3719.419,6558.918,-187500.016,-187500.016,-187500.016,-187500.016][-2839.096,2043.374,3717.542,6459.743,-187500.016,-187500.016,-187500.016,-187500.016][-2854.720,2021.000,3711.664,6482.699,-187500.016,-187500.016,-187500.016,-187500.016][-2852.328,2021.179,3739.760,6590.702,-187500.016,-187500.016,-187500.016,-187500.016][-2850.920,2027.057,3735.490,6581.806,-187500.016,-187500.016,-187500.016,-187500.016][-2840.080,2050.750,3731.892,6481.089,-187500.016,-187500.016,-187500.016,-187500.016][-2823.740,2057.679,3755.786,6502.391,-187500.016,-187500.016,-187500.016,-187500.016][-2821.773,2052.941,3768.258,6616.965,-187500.016,-187500.016,-187500.016,-187500.016][-2825.774,2041.541,3754.109,6612.651,-187500.016,-187500.016,-187500.016,-187500.016][-2829.686,2043.016,3733.054,6488.890,-187500.016,-187500.016,-187500.016,-187500.016][-2854.854,2027.527,3732.831,6450.557,-187500.016,-187500.016,-187500.016,-187500.016][-2858.587,2026.990,3797.136,6565.914,-187500.016,-187500.016,-187500.016,-187500.016][-2853.625,2025.828,3759.451,6611.624,-187500.016,-187500.016,-187500.016,-187500.016][-2825.372,2047.286,3730.819,6519.422,-187500.016,-187500.016,-187500.016,-187500.016][-2827.250,2037.674,3725.052,6469.399,-187500.016,-187500.016,-187500.016,-187500.016][-2829.910,2030.298,3730.350,6577.738,-187500.016,-187500.016,-187500.016,-187500.016][-2851.144,2010.003,3736.429,6628.812,-187500.016,-187500.016,-187500.016,-187500.016][-2857.581,2007.030,3734.485,6519.266,-187500.016,-187500.016,-187500.016,-187500.016][-2846.539,2026.789,3748.477,6450.847,-187500.016,-187500.016,-187500.016,-187500.016][-2839.700,2035.439,3768.594,6550.044,-187500.016,-187500.016,-187500.016,-187500.016][-2843.410,2013.043,3739.916,6628.655,-187500.016,-187500.016,-187500.016,-187500.016][-2835.453,2023.034,3731.825,6549.978,-187500.016,-187500.016,-187500.016,-187500.016][-2845.533,2027.169,3747.225,6447.495,-187500.016,-187500.016,-187500.016,-187500.016][-2854.675,2013.333,3725.074,6506.727,-187500.016,-187500.016,-187500.016,-187500.016][-2849.512,2016.552,3773.220,6625.035,-187500.016,-187500.016,-187500.016,-187500.016][-2848.149,2012.842,3746.532,6581.784,-187500.016,-187500.016,-187500.016,-187500.016][-2834.894,2021.559,3730.663,6468.103,-187500.016,-187500.016,-187500.016,-187500.016][-2824.411,2032.109,3756.926,6504.067,-187500.016,-187500.016,-187500.016,-187500.016][-2840.884,2017.424,3784.687,6620.989,-187500.016,-187500.016,-187500.016,-187500.016][-2847.992,2007.924,3758.915,6593.921,-187500.016,-187500.016,-187500.016,-187500.016][-2826.356,2018.944,3724.918,6477.826,-187500.016,-187500.016,-187500.016,-187500.016][-2836.816,2012.238,3739.871,6479.524,-187500.016,-187500.016,-187500.016,-187500.016][-2857.760,1998.067,3746.644,6591.708,-187500.016,-187500.016,-187500.016,-187500.016][-2859.995,2003.812,3764.972,6613.613,-187500.016,-187500.016,-187500.016,-187500.016][-2839.320,2016.574,3749.371,6495.596,-187500.016,-187500.016,-187500.016,-187500.016][-2845.444,2', b'010.003,3759.429,6481.424,-187500.016,-187500.016,-187500.016,-187500.016][-2842.605,2008.282,3761.754,6584.801,-187500.016,-187500.016,-187500.016,-187500.016][-2836.414,2012.864,3791.102,6616.630,-187500.016,-187500.016,-187500.016,-187500.016][-2861.694,1993.530,3742.375,6516.159,-187500.016,-187500.016,-187500.016,-187500.016][-2877.988,1974.754,3672.481,6431.223,-187500.016,-187500.016,-187500.016,-187500.016][-2818.085,2023.928,3759.250,6571.278,-187500.016,-187500.016,-187500.016,-187500.016][-2812.073,2013.669,3780.775,6638.468,-187500.016,-187500.016,-187500.016,-187500.016][-2810.866,2016.753,3768.638,6528.564,-187500.016,-187500.016,-187500.016,-187500.016][-2854.362,2008.997,3746.890,6435.268,-187500.016,-187500.016,-187500.016,-187500.016][-2869.897,1995.094,3738.575,6534.890,-187500.016,-187500.016,-187500.016,-187500.016][-2856.598,1990.043,3759.094,6619.089,-187500.016,-187500.016,-187500.016,-187500.016][-2841.041,1993.351,3730.484,6543.495,-187500.016,-187500.016,-187500.016,-187500.016][-2817.191,2023.325,3751.249,6475.546,-187500.016,-187500.016,-187500.016,-187500.016][-2847.366,2003.588,3757.082,6519.735,-187500.016,-187500.016,-187500.016,-187500.016][-2854.362,1994.491,3785.849,6626.353,-187500.016,-187500.016,-187500.016,-187500.016][-2854.116,1993.954,3764.928,6571.524,-187500.016,-187500.016,-187500.016,-187500.016][-2844.528,1997.821,3739.983,6466.114,-187500.016,-187500.016,-187500.016,-187500.016][-2862.834,1980.432,3786.050,6501.966,-187500.016,-187500.016,-187500.016,-187500.016][-2848.752,1988.478,3807.173,6615.580,-187500.016,-187500.016,-187500.016,-187500.016][-2840.147,1993.597,3727.220,6588.020,-187500.016,-187500.016,-187500.016,-187500.016][-2839.297,1992.680,3705.986,6457.978,-187500.016,-187500.016,-187500.016,-187500.016][-2827.853,2008.617,3755.384,6491.036,-187500.016,-187500.016,-187500.016,-187500.016][-2839.141,1986.981,3769.867,6609.276,-187500.016,-187500.016,-187500.016,-187500.016][-2850.496,1980.789,3746.219,6601.945,-187500.016,-187500.016,-187500.016,-187500.016][-2845.891,1988.702,3732.831,6483.995,-187500.016,-187500.016,-187500.016,-187500.016][-2859.146,1978.800,3749.952,6453.462,-187500.016,-187500.016,-187500.016,-187500.016][-2866.522,1968.652,3800.489,6593.004,-187500.016,-187500.016,-187500.016,-187500.016][-2858.319,1962.595,3768.862,6627.694,-187500.016,-187500.016,-187500.016,-187500.016][-2831.832,1990.110,3730.126,6526.240,-187500.016,-187500.016,-187500.016,-187500.016][-2828.993,1995.519,3732.004,6477.513,-187500.016,-187500.016,-187500.016,-187500.016][-2848.551,1983.471,3773.489,6570.675,-187500.016,-187500.016,-187500.016,-187500.016][-2859.101,1974.464,3766.582,6612.026,-187500.016,-187500.016,-187500.016,-187500.016][-2832.279,1989.775,3761.307,6528.743,-187500.016,-187500.016,-187500.016,-187500.016][-2826.981,1993.083,3764.682,6463.364,-187500.016,-187500.016,-187500.016,-187500.016][-2832.100,1977.727,3760.279,6547.183,-187500.016,-187500.016,-187500.016,-187500.016][-2844.349,1970.843,3755.697,6632.232,-187500.016,-187500.016,-187500.016,-187500.016][-2834.805,1974.240,3761.754,6557.331,-187500.016,-187500.016,-187500.016,-187500.016][-2836.503,1978.219,3751.047,6473.378,-187500.016,-187500.016,-187500.016,-187500.016][-2853.178,1969.278,3747.717,6524.273,-187500.016,-187500.016,-187500.016,-187500.016][-2865.024,1955.196,3762.246,6624.476,-187500.016,-187500.016,-187500.016,-187500.016][-2848.082,1968.719,3733.591,6569.446,-187500.016,-187500.016,-187500.016,-187500.016][-2834.067,1985.930,3745.594,6462.336,-187500.016,-187500.016,-187500.016,-187500.016][-2841.957,1968.876,3747.382,6503.776,-187500.016,-187500.016,-187500.016,-187500.016][-2858.251,1952.268,3760.547,6616.295,-187500.016,-187500.016,-187500.016,-187500.016][-2881.229,1935.057,3730.350,6567.233,-187500.016,-187500.016,-187500.016,-187500.016][-2890.170,1932.956,3718.078,6429.904,-187500.016,-187500.016,-187500.016,-187500.016][-2832.100,1986.042,3781.133,6504.670,-187500.016,-187500.016,-187500.016,-187500.016][-2833.732,1973.927,3785.715,6623.358,-187500.016,-187500.016,-187']
INDEX_b'1.6048872470855713'___FLEX_[b'329,404,401,391,401\n329,404,401,390,400\n328,403,401,391,400\n328,403,401,390,400\n329,404,401,391,399\n329,404,401,390,397\n329,404,401,390,398\n329,403,401,391,399\n328,404,400,390,400\n329,404,401,390,399\n329,404,400,391,399\n329,404,400,391,398\n329,404,401,391,399\n329,404,400,391,400\n329,403,400,391,399\n329,403,401,390,400\n328,404,400,390,399\n329,403,400,391,399\n328,403,401,391,400\n329,403,401,391,399\n329,404,400,391,399\n330,404,401,391,400\n329,404,401,390,400\n330,404,401,391,399\n329,404,401,391,399\n329,403,400,391,399\n329,404,401,390,400\n329,404,401,391,400\n329,404,401,391,400\n329,403,401,390,400\n329,403,400,391,400\n329,403,402,391,400\n329,403,401,390,399\n329,403,401,391,399\n329,404,401,391,399\n329,404,401,391,400\n329,404,401,390,399\n329,404,401,390,399\n329,404,401,390,400\n329,404,400,391,399\n329,404,400,391,399\n329,403,401,389,399\n329,404,401,391,399\n329,404,400,391,400\n329,404,400,391,399\n329,403,400,390,399\n329,403,401,391,401\n329,404,401,390,399\n329,404,401,391,399\n329,404,401,391,399\n']___EMG_[b'500.016,-187500.016][-2847.120,1961.410,3774.338,6634.243,-187500.016,-187500.016,-187500.016,-187500.016][-2850.026,1958.661,3752.813,6498.345,-187500.016,-187500.016,-187500.016,-187500.016][-2852.552,1951.508,3783.167,6453.775,-187500.016,-187500.016,-187500.016,-187500.016][-2855.100,1952.671,3759.027,6579.996,-187500.016,-187500.016,-187500.016,-187500.016][-2843.634,1957.655,3743.492,6625.035,-187500.016,-187500.016,-187500.016,-187500.016][-2840.996,1964.495,3742.531,6512.829,-187500.016,-187500.016,-187500.016,-187500.016][-2851.323,1961.008,3755.831,6473.378,-187500.016,-187500.016,-187500.016,-187500.016][-2863.594,1942.724,3739.625,6550.804,-187500.016,-187500.016,-187500.016,-187500.016][-2857.872,1943.328,3771.186,6618.441,-187500.016,-187500.016,-187500.016,-187500.016][-2851.658,1948.983,3757.753,6526.173,-187500.016,-187500.016,-187500.016,-187500.016][-2853.021,1943.149,3722.102,6461.420,-187500.016,-187500.016,-187500.016,-187500.016][-2863.236,1939.438,3728.293,6549.307,-187500.016,-187500.016,-187500.016,-187500.016][-2842.069,1952.358,3773.108,6643.229,-187500.016,-187500.016,-187500.016,-187500.016][-2829.306,1951.844,3750.824,6558.292,-187500.016,-187500.016,-187500.016,-187500.016][-2840.974,1944.736,3727.489,6455.161,-187500.016,-187500.016,-187500.016,-187500.016][-2844.058,1951.330,3758.177,6513.879,-187500.016,-187500.016,-187500.016,-187500.016][-2864.219,1930.609,3766.962,6612.182,-187500.016,-187500.016,-187500.016,-187500.016][-2871.394,1934.834,3751.852,6561.712,-187500.016,-187500.016,-187500.016,-187500.016][-2849.713,1940.198,3740.140,6468.997,-187500.016,-187500.016,-187500.016,-187500.016][-2836.682,1947.977,3760.435,6518.707,-187500.016,-187500.016,-187500.016,-187500.016][-2859.816,1927.413,3789.716,6630.265,-187500.016,-187500.016,-187500.016,-187500.016][-2888.427,1913.019,3763.184,6578.476,-187500.016,-187500.016,-187500.016,-187500.016][-2868.891,1924.463,3707.350,6446.757,-187500.016,-187500.016,-187500.016,-187500.016][-2840.325,1948.580,3761.173,6475.591,-187500.016,-187500.016,-187500.016,-187500.016][-2870.277,1917.757,3756.657,6591.552,-187500.016,-187500.016,-187500.016,-187500.016][-2850.406,1937.784,3775.299,6615.245,-187500.016,-187500.016,-187500.016,-187500.016][-2837.263,1950.659,3736.116,6486.610,-187500.016,-187500.016,-187500.016,-187500.016][-2853.893,1938.366,3754.490,6458.670,-187500.016,-187500.016,-187500.016,-187500.016][-2873.115,1908.571,3747.426,6555.342,-187500.016,-187500.016,-187500.016,-187500.016][-2877.005,1908.012,3754.758,6601.900,-187500.016,-187500.016,-187500.016,-187500.016][-2846.562,1929.492,3744.230,6509.521,-187500.016,-187500.016,-187500.016,-187500.016][-2850.049,1933.381,3752.209,6451.674,-187500.016,-187500.016,-187500.016,-187500.016][-2866.477,1920.752,3777.758,6548.614,-187500.016,-187500.016,-187500.016,-187500.016][-2868.600,1911.096,3752.098,6619.715,-187500.016,-187500.016,-187500.016,-187500.016][-2867.371,1907.252,3740.408,6520.920,-187500.016,-187500.016,-187500.016,-187500.016][-2857.983,1919.210,3722.057,6453.529,-187500.016,-187500.016,-187500.016,-187500.016][-2855.301,1916.103,3756.345,6567.479,-187500.016,-187500.016,-187500.016,-187500.016][-2871.439,1906.090,3784.351,6620.273,-187500.016,-187500.016,-187500.016,-187500.016][-2861.560,1922.384,3770.829,6539.226,-187500.016,-187500.016,-187500.016,-187500.016][-2854.809,1923.859,3697.381,6440.923,-187500.016,-187500.016,-187500.016,-187500.016][-2856.732,1921.244,3739.961,6507.710,-187500.016,-187500.016,-187500.016,-187500.016][-2843.634,1926.586,3781.043,6628.834,-187500.016,-187500.016,-187500.016,-187500.016][-2849.065,1916.371,3753.595,6567.971,-187500.016,-187500.016,-187500.016,-187500.016][-2860.397,1918.070,3741.995,6453.127,-187500.016,-187500.016,-187500.016,-187500.016][-2875.708,1902.200,3740.765,6485.336,-187500.016,-187500.016,-187500.016,-187500.016][-2879.575,1896.188,3758.289,6600.939,-187500.016,-187500.016,-187500.016,-187500.016][-2876.871,1895.339,3756.523,6577.984,-187500.016,-187500.016,-187500.016,-187500.016][-2851.434,1917.958,3749.684,6472.', b'909,-187500.016,-187500.016,-187500.016,-187500.016][-2859.392,1912.214,3760.592,6465.600,-187500.016,-187500.016,-187500.016,-187500.016][-2866.410,1900.301,3773.846,6586.187,-187500.016,-187500.016,-187500.016,-187500.016][-2859.615,1892.008,3757.708,6604.516,-187500.016,-187500.016,-187500.016,-187500.016][-2881.967,1878.977,3721.342,6470.964,-187500.016,-187500.016,-187500.016,-187500.016][-2849.154,1910.426,3754.624,6476.641,-187500.016,-187500.016,-187500.016,-187500.016][-2862.521,1901.105,3767.632,6593.854,-187500.016,-187500.016,-187500.016,-187500.016][-2882.436,1891.159,3765.844,6593.563,-187500.016,-187500.016,-187500.016,-187500.016][-2881.296,1887.493,3743.023,6489.516,-187500.016,-187500.016,-187500.016,-187500.016][-2869.919,1894.646,3739.760,6437.481,-187500.016,-187500.016,-187500.016,-187500.016][-2892.740,1865.812,3779.881,6520.831,-187500.016,-187500.016,-187500.016,-187500.016][-2878.033,1886.331,3791.660,6592.915,-187500.016,-187500.016,-187500.016,-187500.016][-2845.422,1920.886,3730.372,6533.504,-187500.016,-187500.016,-187500.016,-187500.016][-2857.693,1913.332,3737.323,6448.545,-187500.016,-187500.016,-187500.016,-187500.016][-2860.733,1899.719,3749.349,6537.237,-187500.016,-187500.016,-187500.016,-187500.016][-2867.550,1888.275,3769.689,6634.154,-187500.016,-187500.016,-187500.016,-187500.016][-2865.784,1887.672,3756.121,6545.261,-187500.016,-187500.016,-187500.016,-187500.016][-2864.242,1895.696,3735.960,6447.338,-187500.016,-187500.016,-187500.016,-187500.016][-2874.568,1887.761,3745.370,6509.700,-187500.016,-187500.016,-187500.016,-187500.016][-2883.286,1873.926,3762.536,6603.912,-187500.016,-187500.016,-187500.016,-187500.016][-2874.971,1884.543,3753.819,6544.389,-187500.016,-187500.016,-187500.016,-187500.016][-2873.920,1889.840,3734.507,6432.250,-187500.016,-187500.016,-187500.016,-187500.016][-2860.844,1886.375,3753.148,6486.208,-187500.016,-187500.016,-187500.016,-187500.016][-2881.877,1867.354,3768.482,6589.361,-187500.016,-187500.016,-187500.016,-187500.016][-2886.772,1878.262,3759.921,6586.120,-187500.016,-187500.016,-187500.016,-187500.016][-2860.755,1888.141,3749.304,6484.777,-187500.016,-187500.016,-187500.016,-187500.016][-2879.642,1873.255,3752.947,6486.275,-187500.016,-187500.016,-187500.016,-187500.016][-2884.627,1874.037,3766.425,6563.388,-187500.016,-187500.016,-187500.016,-187500.016][-2886.214,1872.540,3766.850,6574.050,-187500.016,-187500.016,-187500.016,-187500.016][-2889.879,1862.839,3724.449,6457.598,-187500.016,-187500.016,-187500.016,-187500.016][-2883.643,1876.406,3738.083,6436.922,-187500.016,-187500.016,-187500.016,-187500.016][-2874.971,1877.234,3762.670,6563.634,-187500.016,-187500.016,-187500.016,-187500.016][-2874.144,1870.707,3756.836,6607.667,-187500.016,-187500.016,-187500.016,-187500.016][-2886.996,1870.081,3735.893,6474.339,-187500.016,-187500.016,-187500.016,-187500.016][-2886.884,1873.076,3739.424,6430.306,-187500.016,-187500.016,-187500.016,-187500.016][-2878.502,1872.003,3779.300,6546.871,-187500.016,-187500.016,-187500.016,-187500.016][-2887.286,1862.548,3785.961,6599.218,-187500.016,-187500.016,-187500.016,-187500.016][-2856.575,1885.124,3746.957,6533.057,-187500.016,-187500.016,-187500.016,-187500.016][-2864.912,1884.520,3732.697,6457.262,-187500.016,-187500.016,-187500.016,-187500.016][-2877.832,1876.898,3756.836,6543.026,-187500.016,-187500.016,-187500.016,-187500.016][-2886.080,1869.366,3774.494,6620.229,-187500.016,-187500.016,-187500.016,-187500.016][-2885.588,1870.193,3766.448,6537.103,-187500.016,-187500.016,-187500.016,-187500.016][-2878.815,1861.654,3741.771,6437.570,-187500.016,-187500.016,-187500.016,-187500.016][-2873.697,1868.114,3746.130,6509.811,-187500.016,-187500.016,-187500.016,-187500.016][-2893.523,1853.652,3773.086,6628.611,-187500.016,-187500.016,-187500.016,-187500.016][-2917.327,1834.050,3758.177,6550.603,-187500.016,-187500.016,-187500.016,-187500.016][-2881.766,1869.455,3756.278,6420.717,-187500.016,-187500.016,-187500.016,-187500.016][-2860.956,1888.365,3755.026,6468.237,-187500.016,-187500.016,-187500.016,-187500.016][-']
INDEX_b'2.0078253746032715'___FLEX_[b'329,403,401,390,400\n329,404,401,391,400\n329,404,401,390,400\n329,404,401,390,400\n329,403,401,390,399\n329,404,402,390,399\n329,404,400,391,400\n329,404,401,391,400\n329,404,401,390,400\n329,403,400,390,400\n328,403,401,391,400\n329,403,400,391,399\n329,404,401,391,399\n329,404,401,390,400\n329,403,400,391,399\n330,404,401,391,400\n329,403,401,391,399\n330,403,401,391,400\n330,404,401,391,400\n329,404,400,391,399\n329,404,400,389,398\n329,404,401,391,400\n328,404,401,390,400\n329,404,400,391,399\n329,404,401,391,400\n329,403,401,391,399\n329,403,401,390,400\n329,403,401,391,399\n328,404,400,390,400\n329,404,401,391,399\n329,404,400,390,399\n329,404,401,391,400\n329,404,400,390,399\n330,403,401,391,400\n330,404,401,390,400\n329,404,400,390,400\n329,404,401,391,400\n330,403,400,390,399\n329,404,400,391,400\n329,404,400,391,400\n329,404,400,391,400\n329,403,401,391,399\n329,404,400,390,400\n329,403,400,390,399\n329,404,400,390,399\n329,404,400,391,400\n329,403,401,390,400\n330,404,400,390,400\n329,404,401,391,400\n329,404,401,391,399\n', b'329,404,400,390,400\n329,403,401,391,400\n328,404,400,390,400\n330,404,401,391,399\n328,403,400,391,399\n329,403,400,391,400\n329,404,401,391,401\n329,404,400,391,400\n329,404,401,390,400\n330,403,400,391,400\n329,403,401,390,400\n329,404,401,390,400\n329,404,400,390,400\n329,404,401,391,399\n329,404,400,390,399\n329,403,400,390,400\n329,404,400,390,399\n329,403,400,391,400\n329,404,400,391,400\n329,404,400,391,400\n329,404,401,390,399\n330,404,401,391,400\n329,404,400,390,398\n330,403,401,391,399\n329,403,401,390,400\n329,403,401,390,400\n329,404,401,391,400\n330,403,400,391,399\n329,404,400,391,400\n329,404,400,391,399\n329,404,400,390,400\n330,404,401,390,399\n329,404,401,390,399\n329,404,400,391,400\n329,404,400,391,400\n329,403,401,391,399\n329,404,400,391,399\n330,404,400,390,399\n329,404,401,391,400\n327,404,400,391,399\n329,403,400,390,399\n329,404,400,391,400\n329,403,400,391,399\n329,404,400,390,399\n329,404,400,391,400\n329,403,401,391,400\n329,404,400,390,399\n330,403,401,390,399\n329,404,401,389,400\n330,404,401,391,400\n', b'329,403,400,390,400\n329,403,400,391,399\n328,404,400,391,399\n329,404,401,391,400\n329,404,401,390,400\n329,404,400,390,399\n329,404,400,391,400\n328,403,400,390,400\n329,404,401,391,399\n330,404,400,390,400\n329,404,400,390,400\n329,404,401,391,399\n329,405,400,390,399\n329,404,400,391,400\n329,404,401,391,400\n329,404,400,391,399\n330,404,400,390,399\n329,404,400,391,399\n329,404,401,390,400\n329,404,400,390,400\n329,403,400,390,399\n330,403,400,390,400\n329,404,400,391,399\n330,404,400,390,401\n329,403,400,390,399\n329,403,400,391,399\n329,404,400,390,400\n327,404,400,390,400\n329,404,400,390,400\n329,404,400,390,400\n329,404,400,391,399\n329,403,399,390,400\n329,403,400,390,399\n329,404,399,391,400\n329,404,400,390,400\n329,404,400,390,400\n329,404,400,390,400\n329,404,400,390,399\n329,404,400,391,400\n329,404,400,390,399\n329,403,400,390,399\n329,404,400,391,399\n329,404,400,388,400\n329,404,400,390,399\n330,403,400,390,399\n330,404,400,390,400\n329,404,400,391,400\n329,404,400,391,399\n329,404,400,390,399\n329,403,399,391,399\n', b'329,404,400,391,399\n329,403,400,391,400\n329,404,400,390,400\n329,404,400,391,399\n329,404,400,391,400\n329,404,400,390,399\n329,404,400,391,400\n329,404,400,390,400\n329,404,400,391,400\n329,403,400,390,399\n329,404,400,391,400\n329,404,400,390,400\n329,405,400,390,399\n330,404,400,391,399\n328,404,400,390,399\n330,404,399,391,399\n330,404,400,390,400\n329,404,400,391,399\n329,404,400,391,400\n329,404,399,391,399\n329,403,399,391,399\n329,404,400,391,400\n329,404,399,390,400\n329,404,399,390,400\n329,403,400,390,400\n329,404,399,390,400\n329,403,399,391,399\n330,404,398,390,400\n329,404,399,390,400\n329,404,399,390,399\n329,404,399,390,399\n330,403,399,391,400\n328,404,399,390,400\n329,404,399,390,400\n329,404,399,390,400\n329,403,398,390,399\n329,404,399,390,400\n329,404,398,390,399\n329,404,398,390,399\n329,404,398,390,399\n329,404,398,389,400\n329,403,398,390,400\n329,402,398,390,400\n329,404,398,390,399\n329,404,397,390,400\n330,404,398,391,399\n330,404,397,390,399\n330,404,398,390,399\n329,403,398,391,399\n329,403,398,390,400\n', b'329,404,398,390,400\n329,404,397,390,400\n329,404,398,391,400\n329,403,397,391,399\n328,404,398,390,400\n330,404,398,391,400\n329,405,398,391,400\n330,404,398,390,399\n329,404,397,390,399\n330,404,398,390,400\n329,404,398,391,400\n330,403,398,391,399\n329,404,398,390,400\n329,404,397,390,400\n329,404,398,390,399\n329,404,397,390,400\n328,404,398,390,400\n329,404,397,390,399\n329,404,398,390,399\n329,404,396,390,399\n329,404,397,390,399\n329,404,397,390,399\n329,403,397,390,399\n330,404,398,390,400\n329,403,397,390,400\n330,403,398,391,399\n329,404,397,391,399\n329,404,397,390,399\n329,403,397,390,399\n330,404,397,391,399\n329,404,397,390,400\n329,404,398,391,400\n329,404,397,390,399\n329,404,397,390,399\n329,404,397,391,399\n329,404,397,390,399\n329,404,397,390,400\n329,405,397,390,399\n329,404,397,390,400\n330,404,398,390,400\n329,404,397,390,399\n329,405,397,391,400\n329,404,397,390,399\n328,404,397,390,399\n330,404,398,390,399\n329,404,397,391,399\n329,405,396,390,399\n329,404,397,391,400\n329,404,397,390,399\n329,404,397,390,400\n']___EMG_[b'2907.045,1850.680,3759.586,6571.145,-187500.016,-187500.016,-187500.016,-187500.016][-2925.418,1827.970,3743.045,6533.459,-187500.016,-187500.016,-187500.016,-187500.016][-2885.968,1862.079,3751.137,6457.553,-187500.016,-187500.016,-187500.016,-187500.016][-2878.614,1877.636,3743.939,6478.787,-187500.016,-187500.016,-187500.016,-187500.016][-2891.690,1859.553,3736.005,6583.438,-187500.016,-187500.016,-187500.016,-187500.016][-2887.130,1859.531,3744.163,6588.467,-187500.016,-187500.016,-187500.016,-187500.016][-2879.195,1867.958,3744.006,6468.751,-187500.016,-187500.016,-187500.016,-187500.016][-2885.320,1867.779,3747.203,6452.054,-187500.016,-187500.016,-187500.016,-187500.016][-2908.833,1849.339,3769.309,6569.133,-187500.016,-187500.016,-187500.016,-187500.016][-2926.961,1836.576,3770.314,6630.936,-187500.016,-187500.016,-187500.016,-187500.016][-2884.560,1869.008,3743.738,6474.764,-187500.016,-187500.016,-187500.016,-187500.016][-2860.442,1884.364,3747.024,6421.902,-187500.016,-187500.016,-187500.016,-187500.016][-2886.370,1861.207,3772.103,6532.543,-187500.016,-187500.016,-187500.016,-187500.016][-2893.456,1851.708,3809.296,6600.738,-187500.016,-187500.016,-187500.016,-187500.016][-2884.314,1854.390,3730.081,6498.166,-187500.016,-187500.016,-187500.016,-187500.016][-2891.578,1842.141,3710.457,6415.219,-187500.016,-187500.016,-187500.016,-187500.016][-2893.769,1847.662,3738.977,6516.495,-187500.016,-187500.016,-187500.016,-187500.016][-2893.299,1857.832,3778.652,6614.417,-187500.016,-187500.016,-187500.016,-187500.016][-2904.028,1852.289,3745.370,6528.631,-187500.016,-187500.016,-187500.016,-187500.016][-2893.388,1861.498,3740.028,6430.887,-187500.016,-187500.016,-187500.016,-187500.016][-2911.471,1834.922,3741.883,6475.501,-187500.016,-187500.016,-187500.016,-187500.016][-2925.307,1814.179,3737.122,6599.531,-187500.016,-187500.016,-187500.016,-187500.016][-2902.508,1849.339,3755.048,6564.215,-187500.016,-187500.016,-187500.016,-187500.016][-2897.345,1857.251,3739.514,6450.780,-187500.016,-187500.016,-187500.016,-187500.016][-2903.425,1843.773,3756.412,6482.542,-187500.016,-187500.016,-187500.016,-187500.016][-2904.430,1840.219,3776.618,6577.313,-187500.016,-187500.016,-187500.016,-187500.016][-2897.255,1844.756,3760.882,6573.379,-187500.016,-187500.016,-187500.016,-187500.016][-2891.891,1851.261,3730.014,6457.821,-187500.016,-187500.016,-187500.016,-187500.016][-2917.417,1831.927,3717.609,6425.254,-187500.016,-187500.016,-187500.016,-187500.016][-2910.823,1836.710,3770.292,6562.896,-187500.016,-187500.016,-187500.016,-187500.016][-2909.459,1845.181,3778.808,6588.020,-187500.016,-187500.016,-187500.016,-187500.016][-2900.720,1842.924,3727.757,6460.615,-187500.016,-187500.016,-187500.016,-187500.016][-2894.372,1843.795,3725.387,6447.875,-187500.016,-187500.016,-187500.016,-187500.016][-2913.729,1822.516,3755.741,6554.671,-187500.016,-187500.016,-187500.016,-187500.016][-2898.775,1829.088,3768.794,6600.247,-187500.016,-187500.016,-187500.016,-187500.016][-2904.140,1826.495,3718.011,6482.207,-187500.016,-187500.016,-187500.016,-187500.016][-2915.137,1828.015,3726.952,6424.204,-187500.016,-187500.016,-187500.016,-187500.016][-2920.859,1824.416,3746.197,6509.655,-187500.016,-187500.016,-187500.016,-187500.016][-2914.332,1829.937,3764.548,6596.201,-187500.016,-187500.016,-187500.016,-187500.016][-2904.721,1840.621,3743.448,6505.162,-187500.016,-187500.016,-187500.016,-187500.016][-2912.499,1834.743,3735.938,6418.035,-187500.016,-187500.016,-187500.016,-187500.016][-2919.361,1816.392,3767.208,6498.523,-187500.016,-187500.016,-187500.016,-187500.016][-2932.705,1817.085,3755.115,6587.483,-187500.016,-187500.016,-187500.016,-187500.016][-2940.282,1803.227,3699.035,6502.524,-187500.016,-187500.016,-187500.016,-187500.016][-2899.915,1841.270,3748.611,6449.372,-187500.016,-187500.016,-187500.016,-187500.016][-2908.029,1831.837,3753.729,6502.860,-187500.016,-187500.016,-187500.016,-187500.016][-2918.154,1820.661,3771.834,6595.217,-187500.016,-187500.016,-187500.016,-187500.016][-2924.659,1815.878,3749.304,6538.466,-187500.016,-18750', b'0.016,-187500.016,-187500.016][-2912.946,1828.641,3716.268,6436.699,-187500.016,-187500.016,-187500.016,-187500.016][-2935.387,1807.340,3720.090,6437.190,-187500.016,-187500.016,-187500.016,-187500.016][-2911.516,1820.795,3762.178,6580.331,-187500.016,-187500.016,-187500.016,-187500.016][-2904.095,1824.551,3743.045,6574.721,-187500.016,-187500.016,-187500.016,-187500.016][-2902.821,1832.642,3734.686,6437.705,-187500.016,-187500.016,-187500.016,-187500.016][-2906.777,1834.408,3752.925,6431.580,-187500.016,-187500.016,-187500.016,-187500.016][-2908.476,1812.860,3758.200,6552.302,-187500.016,-187500.016,-187500.016,-187500.016][-2928.548,1815.073,3742.956,6563.657,-187500.016,-187500.016,-187500.016,-187500.016][-2941.244,1807.585,3706.791,6438.040,-187500.016,-187500.016,-187500.016,-187500.016][-2927.006,1817.174,3728.673,6421.008,-187500.016,-187500.016,-187500.016,-187500.016][-2921.842,1819.231,3764.503,6564.752,-187500.016,-187500.016,-187500.016,-187500.016][-2931.185,1810.022,3773.265,6591.038,-187500.016,-187500.016,-187500.016,-187500.016][-2927.251,1811.028,3732.875,6459.274,-187500.016,-187500.016,-187500.016,-187500.016][-2921.395,1813.419,3720.738,6410.860,-187500.016,-187500.016,-187500.016,-187500.016][-2927.117,1809.217,3745.571,6520.540,-187500.016,-187500.016,-187500.016,-187500.016][-2946.340,1782.909,3744.073,6590.658,-187500.016,-187500.016,-187500.016,-187500.016][-2940.193,1788.676,3728.807,6499.127,-187500.016,-187500.016,-187500.016,-187500.016][-2908.431,1825.489,3741.146,6418.236,-187500.016,-187500.016,-187500.016,-187500.016][-2931.833,1805.194,3751.204,6492.131,-187500.016,-187500.016,-187500.016,-187500.016][-2921.395,1809.888,3753.350,6585.562,-187500.016,-187500.016,-187500.016,-187500.016][-2922.513,1806.088,3729.411,6511.532,-187500.016,-187500.016,-187500.016,-187500.016][-2922.021,1809.731,3717.229,6407.485,-187500.016,-187500.016,-187500.016,-187500.016][-2940.104,1786.485,3715.508,6448.500,-187500.016,-187500.016,-187500.016,-187500.016][-2955.392,1771.622,3729.813,6555.230,-187500.016,-187500.016,-187500.016,-187500.016][-2927.095,1800.142,3750.153,6543.361,-187500.016,-187500.016,-187500.016,-187500.016][-2919.965,1810.558,3740.587,6445.103,-187500.016,-187500.016,-187500.016,-187500.016][-2920.076,1797.527,3729.679,6462.626,-187500.016,-187500.016,-187500.016,-187500.016][-2932.415,1792.141,3750.421,6567.635,-187500.016,-187500.016,-187500.016,-187500.016][-2941.825,1791.246,3752.031,6544.993,-187500.016,-187500.016,-187500.016,-187500.016][-2922.803,1806.244,3729.522,6449.283,-187500.016,-187500.016,-187500.016,-187500.016][-2926.648,1789.481,3733.412,6457.262,-187500.016,-187500.016,-187500.016,-187500.016][-2947.815,1772.672,3745.728,6556.728,-187500.016,-187500.016,-187500.016,-187500.016][-2959.416,1762.167,3739.625,6560.997,-187500.016,-187500.016,-187500.016,-187500.016][-2923.072,1808.122,3767.096,6426.976,-187500.016,-187500.016,-187500.016,-187500.016][-2928.637,1798.175,3715.284,6393.671,-187500.016,-187500.016,-187500.016,-187500.016][-2925.597,1797.438,3742.129,6527.849,-187500.016,-187500.016,-187500.016,-187500.016][-2951.235,1770.102,3749.326,6551.162,-187500.016,-187500.016,-187500.016,-187500.016][-2939.388,1781.188,3712.379,6447.986,-187500.016,-187500.016,-187500.016,-187500.016][-2924.971,1798.242,3710.792,6420.605,-187500.016,-187500.016,-187500.016,-187500.016][-2931.543,1787.558,3745.549,6537.237,-187500.016,-187500.016,-187500.016,-187500.016][-2944.395,1779.020,3740.408,6585.606,-187500.016,-187500.016,-187500.016,-187500.016][-2926.827,1802.758,3735.066,6487.951,-187500.016,-187500.016,-187500.016,-187500.016][-2937.153,1789.950,3713.094,6393.359,-187500.016,-187500.016,-187500.016,-187500.016][-2947.435,1778.081,3736.541,6479.167,-187500.016,-187500.016,-187500.016,-187500.016][-2942.384,1781.613,3758.535,6602.906,-187500.016,-187500.016,-187500.016,-187500.016][-2935.589,1781.747,3746.666,6544.166,-187500.016,-187500.016,-187500.016,-187500.016][-2921.507,1790.844,3709.741,6416.895,-187500.016,-187500.016,-187500.016,-187500.016][-2925.307,1794.376,3739']
INDEX_b'2.4097628593444824'___FLEX_[b'330,404,397,390,399\n329,404,397,390,400\n330,404,397,390,399\n329,404,396,391,400\n329,404,397,390,397\n329,404,396,390,399\n329,404,397,390,399\n329,404,396,390,400\n330,404,396,390,399\n329,404,396,391,399\n329,404,395,390,400\n329,404,396,390,399\n329,404,396,390,400\n329,404,396,390,399\n329,404,396,390,399\n330,403,397,390,400\n329,404,396,390,399\n329,404,396,391,400\n329,404,395,390,399\n330,404,397,390,400\n329,402,396,390,400\n329,404,396,390,399\n329,403,396,390,401\n329,404,396,391,399\n329,404,396,390,400\n329,404,396,390,399\n329,404,395,390,400\n329,404,396,390,399\n329,404,396,390,400\n329,404,396,390,399\n329,404,396,390,399\n329,404,396,390,399\n329,404,396,391,399\n329,404,396,390,399\n329,404,396,390,400\n329,404,396,391,400\n330,404,396,390,399\n329,405,396,390,400\n329,404,397,391,399\n329,404,396,390,400\n329,405,396,390,400\n329,404,395,390,399\n329,404,395,390,400\n329,404,395,391,399\n329,404,395,390,399\n328,404,395,391,400\n329,405,395,390,399\n329,404,395,390,400\n329,404,396,390,399\n329,404,395,390,399\n', b'329,404,395,390,399\n329,403,395,390,399\n329,404,395,390,400\n330,404,394,390,399\n329,404,395,390,399\n329,404,396,390,399\n329,404,395,390,400\n329,404,395,390,400\n329,404,394,390,399\n329,404,394,391,399\n329,404,394,390,399\n329,405,395,391,400\n329,404,395,390,400\n329,405,395,391,399\n330,404,394,390,399\n329,404,395,391,399\n329,404,394,390,399\n329,404,395,391,401\n328,404,395,389,400\n329,404,394,390,399\n329,405,394,390,399\n329,404,395,390,400\n329,404,395,389,399\n329,404,394,390,400\n328,405,394,390,399\n329,404,395,390,399\n329,405,395,390,398\n329,404,394,391,400\n329,405,395,390,400\n329,404,394,391,399\n329,404,395,390,399\n329,405,395,390,400\n329,404,395,390,399\n329,405,395,390,400\n328,405,395,390,399\n329,404,394,391,398\n330,404,395,390,399\n329,404,395,390,399\n329,404,395,390,400\n329,404,394,390,400\n329,404,395,390,399\n329,404,395,390,400\n329,405,395,390,398\n329,402,395,391,399\n328,405,395,389,400\n329,404,394,390,400\n329,405,394,390,399\n329,404,394,391,399\n329,404,394,390,399\n329,405,394,390,399\n', b'329,404,395,390,399\n329,404,394,390,399\n329,404,395,390,399\n329,404,394,390,401\n329,405,394,390,400\n329,404,395,390,399\n329,404,395,390,399\n329,404,394,390,399\n329,405,394,390,399\n328,404,395,391,399\n329,404,394,390,399\n329,404,394,388,400\n328,405,394,390,400\n329,405,395,390,399\n329,404,395,391,400\n329,405,396,391,400\n328,404,394,390,399\n329,404,394,391,399\n329,404,395,390,400\n329,405,395,390,399\n329,405,394,390,399\n329,404,394,390,400\n329,405,395,390,399\n328,404,395,391,401\n329,405,394,391,400\n329,404,394,390,399\n329,405,394,390,399\n329,404,395,391,400\n329,404,394,390,400\n330,404,394,390,399\n329,404,394,390,400\n330,405,394,391,400\n329,405,394,390,400\n329,404,391,390,398\n329,405,395,390,400\n329,404,394,390,399\n328,405,394,390,399\n329,402,394,389,400\n329,404,395,390,399\n329,404,394,390,399\n329,405,393,390,399\n329,404,394,390,400\n329,405,394,390,400\n329,405,394,390,399\n328,405,393,390,400\n329,404,394,390,399\n329,404,395,390,399\n329,405,395,390,399\n328,404,394,390,399\n329,404,394,389,399\n', b'329,405,395,390,399\n329,404,394,390,400\n328,404,394,389,401\n329,405,394,390,399\n329,404,394,390,399\n329,404,394,390,400\n329,404,395,390,399\n329,405,394,390,400\n329,404,394,390,399\n329,404,395,390,399\n329,405,394,390,400\n329,404,394,390,399\n329,405,394,390,400\n329,404,394,390,399\n329,405,394,390,399\n328,404,394,389,400\n329,404,394,389,400\n329,404,394,390,400\n329,405,394,390,399\n329,405,394,390,400\n329,405,394,390,397\n329,405,394,390,399\n328,405,393,390,400\n329,405,393,390,399\n328,404,394,390,399\n329,404,393,391,400\n329,405,394,390,399\n329,404,393,390,399\n329,404,394,389,399\n329,405,394,390,399\n328,405,393,390,399\n330,405,394,390,400\n328,404,393,390,397\n329,405,394,390,399\n329,404,394,389,399\n328,404,393,389,399\n330,405,393,389,400\n329,403,393,390,399\n329,404,394,390,399\n329,404,393,390,400\n329,404,393,390,400\n329,405,393,390,399\n329,404,393,389,399\n329,404,393,390,398\n328,404,393,390,399\n329,404,394,390,399\n329,405,393,390,400\n329,405,394,390,399\n329,404,393,390,399\n328,404,393,390,399\n', b'329,405,394,389,400\n329,404,393,390,399\n329,405,393,390,399\n329,404,394,389,399\n329,405,393,390,399\n329,405,393,390,399\n329,404,393,390,400\n329,405,392,389,398\n328,404,393,389,399\n329,405,393,390,400\n329,404,393,390,399\n329,405,393,390,399\n329,404,393,389,399\n329,405,393,390,399\n329,404,393,390,399\n329,404,394,390,399\n329,405,392,389,399\n329,404,393,390,400\n329,404,393,390,399\n329,404,392,389,399\n329,405,393,390,399\n329,404,393,390,400\n329,404,393,389,399\n329,404,393,390,400\n329,404,393,389,399\n329,405,393,390,399\n329,405,393,389,399\n328,404,392,390,399\n329,405,393,390,399\n329,404,392,390,399\n329,405,393,390,400\n329,404,393,390,399\n329,404,393,390,399\n329,405,393,390,400\n328,404,393,389,399\n329,404,392,390,399\n328,404,393,390,399\n329,405,393,389,399\n329,405,393,390,400\n329,404,393,389,399\n330,405,393,390,399\n329,404,393,390,399\n329,405,394,390,399\n329,404,393,390,399\n328,403,393,390,399\n330,404,393,390,399\n329,405,393,390,399\n329,405,393,390,400\n329,405,393,390,399\n329,404,393,390,399\n']___EMG_[b'.022,6455.921,-187500.016,-187500.016,-187500.016,-187500.016][-2935.432,1781.792,3761.620,6561.667,-187500.016,-187500.016,-187500.016,-187500.016][-2946.295,1774.192,3730.595,6506.212,-187500.016,-187500.016,-187500.016,-187500.016][-2956.778,1769.901,3717.028,6386.519,-187500.016,-187500.016,-187500.016,-187500.016][-2962.656,1761.720,3702.544,6445.438,-187500.016,-187500.016,-187500.016,-187500.016][-2947.994,1770.526,3776.975,6593.452,-187500.016,-187500.016,-187500.016,-187500.016][-2924.077,1798.801,3753.484,6542.914,-187500.016,-187500.016,-187500.016,-187500.016][-2928.213,1795.851,3712.423,6414.190,-187500.016,-187500.016,-187500.016,-187500.016][-2943.635,1781.523,3722.281,6415.755,-187500.016,-187500.016,-187500.016,-187500.016][-2949.246,1763.888,3782.898,6528.341,-187500.016,-187500.016,-187500.016,-187500.016][-2996.899,1732.037,3751.360,6515.153,-187500.016,-187500.016,-187500.016,-187500.016][-2952.576,1763.932,3661.573,6431.781,-187500.016,-187500.016,-187500.016,-187500.016][-2908.543,1796.879,3727.131,6456.435,-187500.016,-187500.016,-187500.016,-187500.016][-2917.640,1796.544,3758.334,6539.986,-187500.016,-187500.016,-187500.016,-187500.016][-2935.723,1782.574,3735.133,6566.294,-187500.016,-187500.016,-187500.016,-187500.016][-2952.710,1765.900,3692.531,6440.968,-187500.016,-187500.016,-187500.016,-187500.016][-2943.769,1776.025,3715.307,6400.891,-187500.016,-187500.016,-187500.016,-187500.016][-2943.993,1766.883,3735.602,6507.040,-187500.016,-187500.016,-187500.016,-187500.016][-2944.641,1763.798,3739.067,6578.386,-187500.016,-187500.016,-187500.016,-187500.016][-2941.422,1764.536,3717.385,6481.313,-187500.016,-187500.016,-187500.016,-187500.016][-2924.346,1794.353,3745.057,6420.382,-187500.016,-187500.016,-187500.016,-187500.016][-2939.008,1775.980,3753.394,6484.710,-187500.016,-187500.016,-187500.016,-187500.016][-2950.721,1761.496,3744.319,6561.533,-187500.016,-187500.016,-187500.016,-187500.016][-2956.331,1756.668,3732.697,6481.536,-187500.016,-187500.016,-187500.016,-187500.016][-2963.417,1747.549,3690.072,6382.406,-187500.016,-187500.016,-187500.016,-187500.016][-2989.054,1720.503,3664.568,6422.729,-187500.016,-187500.016,-187500.016,-187500.016][-2947.055,1759.708,3758.200,6606.818,-187500.016,-187500.016,-187500.016,-187500.016][-2927.006,1777.299,3752.478,6556.839,-187500.016,-187500.016,-187500.016,-187500.016][-2919.451,1788.654,3724.315,6402.389,-187500.016,-187500.016,-187500.016,-187500.016][-2941.624,1775.198,3727.667,6437.168,-187500.016,-187500.016,-187500.016,-187500.016][-2957.337,1749.538,3738.530,6545.842,-187500.016,-187500.016,-187500.016,-187500.016][-2979.309,1731.232,3694.721,6519.132,-187500.016,-187500.016,-187500.016,-187500.016][-2957.248,1757.272,3722.303,6429.636,-187500.016,-187500.016,-187500.016,-187500.016][-2923.586,1790.620,3755.451,6435.537,-187500.016,-187500.016,-187500.016,-187500.016][-2932.213,1775.153,3750.578,6542.333,-187500.016,-187500.016,-187500.016,-187500.016][-2940.707,1765.810,3739.514,6545.060,-187500.016,-187500.016,-187500.016,-187500.016][-2948.128,1763.195,3720.090,6422.818,-187500.016,-187500.016,-187500.016,-187500.016][-2961.964,1753.293,3731.490,6395.817,-187500.016,-187500.016,-187500.016,-187500.016][-2974.369,1736.306,3731.981,6517.612,-187500.016,-187500.016,-187500.016,-187500.016][-2938.003,1762.547,3739.760,6578.454,-187500.016,-187500.016,-187500.016,-187500.016][-2938.450,1770.057,3716.067,6457.486,-187500.016,-187500.016,-187500.016,-187500.016][-2943.613,1768.313,3721.073,6393.940,-187500.016,-187500.016,-187500.016,-187500.016][-2964.780,1746.029,3750.198,6487.035,-187500.016,-187500.016,-187500.016,-187500.016][-2976.425,1729.399,3712.222,6556.280,-187500.016,-187500.016,-187500.016,-187500.016][-2973.944,1729.958,3709.629,6475.904,-187500.016,-187500.016,-187500.016,-187500.016][-2969.139,1731.232,3661.193,6403.708,-187500.016,-187500.016,-187500.016,-187500.016][-2931.521,1770.124,3745.370,6501.541,-187500.016,-187500.016,-187500.016,-187500.016][-2935.723,1764.648,3770.404,6580.644,-187500.016,-187500.016,-187500.016,-187', b'500.016][-2938.159,1758.076,3724.158,6491.013,-187500.016,-187500.016,-187500.016,-187500.016][-2947.435,1760.669,3710.926,6383.546,-187500.016,-187500.016,-187500.016,-187500.016][-2956.488,1754.478,3732.205,6441.125,-187500.016,-187500.016,-187500.016,-187500.016][-2980.203,1720.347,3724.248,6545.038,-187500.016,-187500.016,-187500.016,-187500.016][-2984.271,1711.495,3712.401,6523.446,-187500.016,-187500.016,-187500.016,-187500.016][-2926.044,1765.251,3738.217,6423.020,-187500.016,-187500.016,-187500.016,-187500.016][-2937.556,1769.453,3731.802,6436.028,-187500.016,-187500.016,-187500.016,-187500.016][-2949.447,1753.830,3733.769,6561.824,-187500.016,-187500.016,-187500.016,-187500.016][-2942.741,1749.158,3730.819,6551.520,-187500.016,-187500.016,-187500.016,-187500.016][-2941.758,1747.661,3699.214,6418.840,-187500.016,-187500.016,-187500.016,-187500.016][-2963.484,1738.005,3707.707,6401.159,-187500.016,-187500.016,-187500.016,-187500.016][-3010.758,1698.487,3737.279,6481.291,-187500.016,-187500.016,-187500.016,-187500.016][-2970.256,1738.474,3740.877,6531.828,-187500.016,-187500.016,-187500.016,-187500.016][-2976.425,1730.539,3683.836,6409.542,-187500.016,-187500.016,-187500.016,-187500.016][-2949.737,1756.378,3708.557,6423.980,-187500.016,-187500.016,-187500.016,-187500.016][-2949.894,1743.145,3730.774,6550.827,-187500.016,-187500.016,-187500.016,-187500.016][-2946.094,1736.552,3735.893,6585.025,-187500.016,-187500.016,-187500.016,-187500.016][-2952.911,1739.167,3711.641,6442.689,-187500.016,-187500.016,-187500.016,-187500.016][-2965.339,1741.290,3741.056,6368.235,-187500.016,-187500.016,-187500.016,-187500.016][-2971.039,1724.750,3730.305,6473.646,-187500.016,-187500.016,-187500.016,-187500.016][-2953.984,1739.212,3730.260,6577.984,-187500.016,-187500.016,-187500.016,-187500.016][-2972.804,1739.323,3699.683,6468.840,-187500.016,-187500.016,-187500.016,-187500.016][-2976.000,1728.974,3682.047,6376.617,-187500.016,-187500.016,-187500.016,-187500.016][-2969.809,1736.395,3722.683,6475.166,-187500.016,-187500.016,-187500.016,-187500.016][-2993.524,1707.092,3708.445,6545.865,-187500.016,-187500.016,-187500.016,-187500.016][-2977.789,1719.296,3734.015,6501.698,-187500.016,-187500.016,-187500.016,-187500.016][-2937.466,1766.637,3733.278,6411.061,-187500.016,-187500.016,-187500.016,-187500.016][-2948.396,1757.048,3742.934,6453.418,-187500.016,-187500.016,-187500.016,-187500.016][-2969.451,1733.892,3735.803,6549.284,-187500.016,-187500.016,-187500.016,-187500.016][-2967.060,1727.343,3712.155,6506.950,-187500.016,-187500.016,-187500.016,-187500.016][-2962.813,1732.662,3716.156,6405.317,-187500.016,-187500.016,-187500.016,-187500.016][-2971.463,1726.829,3733.523,6424.897,-187500.016,-187500.016,-187500.016,-187500.016][-2956.756,1729.176,3738.486,6561.310,-187500.016,-187500.016,-187500.016,-187500.016][-2946.317,1723.789,3720.068,6540.970,-187500.016,-187500.016,-187500.016,-187500.016][-2951.816,1746.744,3705.025,6405.496,-187500.016,-187500.016,-187500.016,-187500.016][-2983.689,1723.319,3698.945,6407.954,-187500.016,-187500.016,-187500.016,-187500.016][-2993.614,1709.305,3738.441,6530.308,-187500.016,-187500.016,-187500.016,-187500.016][-2982.080,1715.429,3727.444,6529.257,-187500.016,-187500.016,-187500.016,-187500.016][-2943.032,1742.385,3693.313,6442.264,-187500.016,-187500.016,-187500.016,-187500.016][-2948.933,1745.358,3710.770,6412.201,-187500.016,-187500.016,-187500.016,-187500.016][-2963.349,1731.299,3731.020,6518.215,-187500.016,-187500.016,-187500.016,-187500.016][-2984.114,1715.250,3717.900,6552.950,-187500.016,-187500.016,-187500.016,-187500.016][-2966.121,1740.195,3739.089,6455.273,-187500.016,-187500.016,-187500.016,-187500.016][-2945.535,1751.751,3757.976,6420.471,-187500.016,-187500.016,-187500.016,-187500.016][-2962.299,1728.550,3789.269,6502.211,-187500.016,-187500.016,-187500.016,-187500.016][-2957.337,1729.913,3770.292,6565.892,-187500.016,-187500.016,-187500.016,-187500.016][-2938.114,1747.862,3697.694,6480.911,-187500.016,-187500.016,-187500.016,-187500.016][-2958.499,1740.776,3700.354,6405.205,-187500.']
INDEX_b'2.8097984790802'___FLEX_[b'329,404,394,389,399\n329,405,393,389,398\n329,404,393,389,399\n329,405,393,390,399\n329,404,393,390,400\n329,404,393,390,399\n329,404,393,390,399\n329,405,393,390,399\n329,405,393,390,399\n328,405,393,390,399\n329,405,393,390,399\n329,404,393,390,399\n329,404,393,390,399\n329,404,393,390,400\n329,404,393,389,399\n329,404,393,389,400\n329,405,392,389,399\n329,404,393,389,399\n329,405,393,390,399\n328,405,393,390,399\n330,404,393,389,399\n329,404,393,389,399\n329,405,392,390,399\n330,404,393,390,399\n329,405,393,390,398\n329,402,393,389,399\n328,405,393,390,399\n329,404,393,390,400\n329,405,392,389,399\n329,404,392,390,400\n328,405,393,389,400\n329,404,392,390,399\n329,404,393,390,399\n329,405,393,390,399\n328,405,393,389,399\n329,404,393,390,399\n329,405,392,389,400\n329,405,393,389,399\n329,405,393,389,399\n329,405,392,389,399\n329,405,393,389,399\n329,405,394,390,399\n329,405,393,390,399\n329,405,393,390,399\n329,405,393,389,399\n329,405,393,390,400\n329,404,393,389,398\n329,404,393,390,400\n329,405,393,390,399\n329,404,393,390,399\n', b'329,405,393,390,399\n329,404,393,390,399\n329,405,393,389,399\n329,405,393,390,399\n328,405,393,390,399\n329,404,392,390,398\n329,405,393,390,399\n329,405,393,389,399\n329,405,393,390,400\n330,404,393,389,396\n329,405,393,389,399\n329,404,393,389,399\n329,404,394,389,399\n329,404,393,389,399\n328,405,393,389,399\n330,404,393,389,399\n329,405,393,390,399\n330,405,393,390,399\n329,404,393,390,400\n329,405,392,390,399\n329,404,393,390,399\n329,404,393,389,399\n328,404,393,390,399\n329,404,393,390,399\n329,405,393,390,400\n329,405,393,389,399\n328,403,394,389,399\n329,405,392,390,399\n328,404,393,389,399\n329,405,393,390,399\n329,404,393,389,398\n329,404,393,389,399\n329,405,393,390,399\n328,404,393,389,399\n329,405,393,390,400\n329,404,393,390,399\n329,404,393,389,399\n329,404,393,389,399\n328,404,393,390,399\n329,405,393,390,399\n329,405,393,390,399\n329,405,393,389,399\n329,405,393,390,399\n329,405,392,390,399\n329,404,393,390,399\n329,405,393,389,399\n329,405,394,389,400\n328,405,393,390,400\n329,405,392,390,399\n329,405,393,389,400\n', b'329,405,393,390,399\n329,405,393,389,399\n329,405,393,390,399\n329,404,393,389,399\n329,405,393,389,399\n329,405,392,390,399\n329,405,393,390,399\n329,404,392,390,399\n329,405,393,390,399\n328,404,393,390,399\n329,405,393,389,399\n329,405,392,390,399\n329,404,393,389,399\n329,405,392,389,399\n328,405,393,390,400\n330,405,393,390,399\n329,405,393,389,399\n329,405,393,390,397\n329,404,392,390,400\n329,405,393,389,399\n329,404,393,389,399\n329,405,393,389,399\n328,404,392,390,399\n329,404,392,390,397\n329,404,393,390,399\n328,405,392,389,399\n329,405,393,389,399\n329,405,393,389,399\n329,405,393,389,399\n329,404,393,389,399\n328,405,393,390,399\n329,405,392,389,399\n329,405,393,389,399\n328,405,392,390,400\n329,404,392,389,399\n329,405,392,390,399\n328,404,393,390,399\n329,405,393,389,400\n328,405,392,389,399\n329,404,392,389,399\n329,404,392,389,399\n329,404,392,390,399\n329,404,392,390,399\n328,404,392,389,398\n329,405,392,389,399\n329,404,392,389,399\n328,404,392,390,397\n328,405,392,390,399\n329,405,392,389,399\n328,404,392,390,399\n', b'329,405,392,389,399\n329,405,392,390,399\n329,405,392,390,399\n328,405,393,390,399\n328,405,391,389,399\n329,404,392,390,399\n329,405,392,390,398\n328,405,392,391,400\n328,404,392,390,399\n328,405,393,390,399\n329,405,392,390,398\n328,405,392,390,399\n328,405,392,389,399\n327,404,392,388,399\n329,405,391,390,399\n329,404,393,389,400\n328,405,393,390,399\n328,405,391,389,399\n328,404,392,389,399\n328,405,392,390,399\n329,404,392,389,399\n328,404,391,390,399\n329,404,392,389,399\n328,404,391,389,399\n328,405,391,389,399\n329,405,391,390,399\n328,405,390,390,399\n328,405,392,389,399\n328,405,391,390,399\n328,405,391,390,399\n328,405,392,389,399\n329,405,391,389,399\n328,405,391,389,399\n328,405,391,389,399\n328,404,390,389,399\n328,404,391,389,399\n328,405,391,390,399\n328,405,389,389,399\n328,404,390,390,399\n328,404,391,390,399\n328,404,391,389,399\n328,405,390,389,400\n329,405,390,389,399\n328,404,390,389,399\n328,405,389,390,399\n328,404,389,389,399\n328,405,389,389,399\n328,405,389,390,399\n328,405,388,390,399\n329,405,388,389,399\n']___EMG_[b'016,-187500.016,-187500.016,-187500.016][-2970.658,1735.926,3742.419,6504.380,-187500.016,-187500.016,-187500.016,-187500.016][-2959.259,1734.674,3739.983,6577.090,-187500.016,-187500.016,-187500.016,-187500.016][-2950.408,1739.502,3724.650,6494.702,-187500.016,-187500.016,-187500.016,-187500.016][-2947.726,1747.035,3732.205,6413.632,-187500.016,-187500.016,-187500.016,-187500.016][-2975.308,1717.352,3688.686,6458.648,-187500.016,-187500.016,-187500.016,-187500.016][-2959.974,1731.321,3745.616,6575.123,-187500.016,-187500.016,-187500.016,-187500.016][-2935.723,1764.089,3775.590,6550.402,-187500.016,-187500.016,-187500.016,-187500.016][-2930.850,1763.731,3735.848,6429.010,-187500.016,-187500.016,-187500.016,-187500.016][-2942.361,1753.114,3748.186,6447.875,-187500.016,-187500.016,-187500.016,-187500.016][-2950.564,1737.177,3763.207,6600.157,-187500.016,-187500.016,-187500.016,-187500.016][-2947.435,1740.061,3755.853,6572.955,-187500.016,-187500.016,-187500.016,-187500.016][-2931.632,1761.943,3749.617,6431.848,-187500.016,-187500.016,-187500.016,-187500.016][-2938.003,1758.300,3759.809,6423.601,-187500.016,-187500.016,-187500.016,-187500.016][-2945.088,1741.581,3769.912,6550.335,-187500.016,-187500.016,-187500.016,-187500.016][-2929.576,1753.628,3754.601,6591.619,-187500.016,-187500.016,-187500.016,-187500.016][-2935.499,1755.394,3738.865,6474.093,-187500.016,-187500.016,-187500.016,-187500.016][-2952.174,1739.502,3746.823,6425.970,-187500.016,-187500.016,-187500.016,-187500.016][-2953.537,1732.729,3773.980,6534.465,-187500.016,-187500.016,-187500.016,-187500.016][-2947.658,1737.155,3730.484,6591.261,-187500.016,-187500.016,-187500.016,-187500.016][-2906.107,1775.578,3763.497,6500.960,-187500.016,-187500.016,-187500.016,-187500.016][-2914.824,1776.964,3757.485,6432.250,-187500.016,-187500.016,-187500.016,-187500.016][-2934.180,1758.322,3749.661,6537.662,-187500.016,-187500.016,-187500.016,-187500.016][-2942.406,1749.784,3772.661,6604.516,-187500.016,-187500.016,-187500.016,-187500.016][-2947.435,1740.709,3748.834,6494.992,-187500.016,-187500.016,-187500.016,-187500.016][-2926.112,1754.299,3732.428,6422.885,-187500.016,-187500.016,-187500.016,-187500.016][-2921.596,1764.469,3771.656,6526.731,-187500.016,-187500.016,-187500.016,-187500.016][-2926.156,1754.679,3792.487,6624.118,-187500.016,-187500.016,-187500.016,-187500.016][-2918.780,1754.634,3778.473,6533.169,-187500.016,-187500.016,-187500.016,-187500.016][-2931.431,1758.233,3748.410,6432.921,-187500.016,-187500.016,-187500.016,-187500.016][-2948.352,1742.050,3741.704,6495.395,-187500.016,-187500.016,-187500.016,-187500.016][-2938.807,1750.052,3782.832,6619.581,-187500.016,-187500.016,-187500.016,-187500.016][-2925.620,1764.916,3775.098,6567.501,-187500.016,-187500.016,-187500.016,-187500.016][-2914.645,1773.208,3762.469,6455.943,-187500.016,-187500.016,-187500.016,-187500.016][-2924.413,1765.587,3757.619,6464.236,-187500.016,-187500.016,-187500.016,-187500.016][-2924.927,1757.428,3782.116,6589.451,-187500.016,-187500.016,-187500.016,-187500.016][-2947.390,1732.797,3756.188,6561.399,-187500.016,-187500.016,-187500.016,-187500.016][-2911.896,1757.205,3742.263,6464.594,-187500.016,-187500.016,-187500.016,-187500.016][-2901.905,1776.517,3767.118,6477.178,-187500.016,-187500.016,-187500.016,-187500.016][-2918.467,1753.472,3830.798,6585.382,-187500.016,-187500.016,-187500.016,-187500.016][-2933.286,1750.611,3779.747,6597.251,-187500.016,-187500.016,-187500.016,-187500.016][-2919.674,1771.219,3734.865,6480.687,-187500.016,-187500.016,-187500.016,-187500.016][-2905.011,1776.181,3768.347,6464.124,-187500.016,-187500.016,-187500.016,-187500.016][-2918.467,1767.889,3780.440,6565.690,-187500.016,-187500.016,-187500.016,-187500.016][-2930.738,1749.784,3771.298,6612.607,-187500.016,-187500.016,-187500.016,-187500.016][-2926.268,1756.154,3738.620,6502.882,-187500.016,-187500.016,-187500.016,-187500.016][-2917.081,1772.694,3765.889,6447.249,-187500.016,-187500.016,-187500.016,-187500.016][-2922.736,1762.234,3791.593,6553.554,-187500.016,-187500.016,-187500.016,-187500.016][-2926.424,175', b'0.589,3787.458,6621.257,-187500.016,-187500.016,-187500.016,-187500.016][-2920.613,1767.308,3772.058,6517.433,-187500.016,-187500.016,-187500.016,-187500.016][-2916.835,1775.868,3784.552,6452.703,-187500.016,-187500.016,-187500.016,-187500.016][-2917.819,1770.079,3806.636,6540.701,-187500.016,-187500.016,-187500.016,-187500.016][-2916.321,1754.612,3802.501,6638.714,-187500.016,-187500.016,-187500.016,-187500.016][-2901.390,1761.005,3750.243,6580.756,-187500.016,-187500.016,-187500.016,-187500.016][-2889.700,1779.735,3747.136,6461.018,-187500.016,-187500.016,-187500.016,-187500.016][-2929.911,1758.635,3761.664,6492.243,-187500.016,-187500.016,-187500.016,-187500.016][-2956.622,1740.262,3762.447,6587.238,-187500.016,-187500.016,-187500.016,-187500.016][-2961.517,1733.445,3741.302,6540.254,-187500.016,-187500.016,-187500.016,-187500.016][-2900.899,1781.389,3772.885,6477.334,-187500.016,-187500.016,-187500.016,-187500.016][-2904.810,1776.271,3788.844,6509.319,-187500.016,-187500.016,-187500.016,-187500.016][-2923.966,1751.773,3785.648,6609.724,-187500.016,-187500.016,-187500.016,-187500.016][-2927.788,1750.924,3774.002,6587.461,-187500.016,-187500.016,-187500.016,-187500.016][-2928.302,1763.955,3784.240,6471.456,-187500.016,-187500.016,-187500.016,-187500.016][-2912.834,1780.853,3815.688,6496.065,-187500.016,-187500.016,-187500.016,-187500.016][-2907.537,1774.617,3777.512,6614.194,-187500.016,-187500.016,-187500.016,-187500.016][-2909.102,1775.310,3771.834,6608.427,-187500.016,-187500.016,-187500.016,-187500.016][-2919.294,1770.616,3759.362,6489.471,-187500.016,-187500.016,-187500.016,-187500.016][-2930.068,1761.496,3763.810,6458.559,-187500.016,-187500.016,-187500.016,-187500.016][-2923.988,1753.293,3771.700,6587.685,-187500.016,-187500.016,-187500.016,-187500.016][-2937.757,1742.184,3768.079,6609.143,-187500.016,-187500.016,-187500.016,-187500.016][-2894.305,1788.385,3795.125,6537.505,-187500.016,-187500.016,-187500.016,-187500.016][-2898.932,1788.922,3784.620,6472.729,-187500.016,-187500.016,-187500.016,-187500.016][-2924.167,1769.766,3784.910,6551.028,-187500.016,-187500.016,-187500.016,-187500.016][-2930.448,1756.981,3805.608,6629.125,-187500.016,-187500.016,-187500.016,-187500.016][-2914.757,1759.619,3754.087,6548.189,-187500.016,-187500.016,-187500.016,-187500.016][-2907.425,1771.689,3738.016,6461.196,-187500.016,-187500.016,-187500.016,-187500.016][-2923.653,1765.162,3780.932,6530.934,-187500.016,-187500.016,-187500.016,-187500.016][-2921.909,1765.274,3811.732,6643.229,-187500.016,-187500.016,-187500.016,-187500.016][-2920.054,1764.424,3787.883,6563.098,-187500.016,-187500.016,-187500.016,-187500.016][-2920.479,1766.168,3772.103,6457.508,-187500.016,-187500.016,-187500.016,-187500.016][-2922.200,1759.328,3762.871,6512.449,-187500.016,-187500.016,-187500.016,-187500.016][-2927.006,1746.208,3783.189,6629.169,-187500.016,-187500.016,-187500.016,-187500.016][-2902.843,1779.378,3795.170,6607.287,-187500.016,-187500.016,-187500.016,-187500.016][-2903.737,1792.364,3775.969,6480.508,-187500.016,-187500.016,-187500.016,-187500.016][-2916.143,1767.442,3785.111,6491.349,-187500.016,-187500.016,-187500.016,-187500.016][-2902.396,1768.939,3844.679,6624.900,-187500.016,-187500.016,-187500.016,-187500.016][-2914.489,1763.888,3781.222,6595.888,-187500.016,-187500.016,-187500.016,-187500.016][-2949.469,1747.593,3701.806,6449.774,-187500.016,-187500.016,-187500.016,-187500.016][-2891.176,1797.550,3804.133,6533.996,-187500.016,-187500.016,-187500.016,-187500.016][-2918.646,1766.257,3808.491,6620.273,-187500.016,-187500.016,-187500.016,-187500.016][-2932.415,1764.827,3810.168,6609.545,-187500.016,-187500.016,-187500.016,-187500.016][-2904.877,1783.289,3783.100,6508.560,-187500.016,-187500.016,-187500.016,-187500.016][-2907.492,1770.549,3763.341,6472.417,-187500.016,-187500.016,-187500.016,-187500.016][-2945.468,1734.406,3761.083,6555.811,-187500.016,-187500.016,-187500.016,-187500.016][-2932.079,1743.637,3782.898,6614.507,-187500.016,-187500.016,-187500.016,-187500.016][-2914.846,1776.025,3787.861,6548.390,-187500.016,-187500.016,-18750']
INDEX_b'3.210752487182617'___FLEX_[b'328,404,388,389,399\n328,405,387,389,399\n328,405,387,389,399\n328,405,388,390,398\n328,405,387,389,399\n328,405,387,389,399\n328,402,386,389,399\n329,404,386,390,399\n328,405,386,389,399\n328,406,385,389,399\n328,405,385,389,399\n328,405,384,389,399\n328,405,383,390,399\n328,405,383,389,399\n328,405,382,390,399\n328,405,381,390,399\n328,405,381,390,399\n328,405,380,390,399\n328,405,379,389,399\n327,405,378,390,399\n328,405,377,389,399\n328,406,376,390,399\n328,405,376,389,399\n328,405,375,389,399\n328,405,373,390,399\n328,406,373,389,397\n327,405,372,389,399\n328,405,370,389,399\n328,405,370,390,399\n328,405,368,390,399\n327,405,367,387,399\n326,405,366,389,399\n328,405,364,390,399\n327,404,363,390,398\n327,405,362,389,399\n327,405,361,389,399\n327,405,360,390,399\n327,405,358,389,400\n327,405,356,389,399\n327,405,355,389,399\n327,405,354,389,399\n327,405,352,389,399\n327,405,350,389,400\n327,405,350,389,399\n327,405,348,389,399\n327,405,347,389,399\n327,405,345,389,400\n327,405,344,389,400\n327,405,343,389,400\n327,405,341,389,399\n', b'327,405,341,389,400\n327,405,339,390,399\n326,405,339,389,399\n326,404,337,389,400\n327,405,336,390,399\n327,406,334,389,399\n327,405,334,390,400\n326,405,333,390,400\n327,405,332,390,400\n327,405,330,390,400\n326,405,329,390,400\n326,405,328,390,400\n327,404,327,390,400\n327,405,326,390,400\n326,405,325,389,399\n326,405,323,390,401\n327,405,322,390,400\n326,405,320,390,400\n326,405,320,390,400\n326,406,319,390,400\n326,405,317,388,398\n326,406,317,390,400\n326,405,316,390,400\n326,405,314,390,400\n326,405,313,390,401\n326,405,312,390,399\n326,406,311,390,400\n326,404,309,390,400\n326,405,309,390,400\n326,405,308,390,400\n325,405,306,390,400\n326,406,305,389,400\n325,405,304,390,401\n326,405,302,390,400\n325,406,302,390,400\n325,405,300,390,401\n325,405,299,391,401\n326,406,298,390,401\n326,405,296,390,401\n325,405,295,390,400\n325,405,294,390,401\n326,405,293,390,400\n325,405,293,390,401\n325,405,291,391,401\n325,405,289,391,401\n325,405,288,391,401\n324,405,289,390,401\n324,406,288,390,401\n325,405,285,390,402\n325,405,285,390,399\n', b'325,405,283,391,401\n325,405,282,390,402\n323,405,281,391,400\n324,405,280,391,402\n324,406,279,391,402\n325,405,278,390,401\n324,406,276,391,401\n324,405,275,391,401\n323,405,274,391,402\n323,405,271,390,401\n323,405,270,391,402\n323,405,269,391,402\n323,406,268,390,401\n323,405,267,391,402\n323,406,266,391,402\n323,405,264,391,402\n322,406,264,391,402\n323,405,262,391,403\n322,405,260,391,402\n321,406,260,391,401\n321,405,257,391,402\n321,405,258,390,402\n321,406,256,391,402\n321,406,255,391,402\n320,406,254,391,402\n319,404,254,391,403\n319,406,253,391,403\n320,406,252,391,403\n319,405,251,391,403\n319,405,250,391,403\n318,405,249,391,403\n318,405,248,391,403\n317,406,247,391,403\n318,406,247,391,403\n317,406,245,391,403\n317,405,244,391,403\n317,405,243,392,404\n316,406,243,391,403\n316,406,243,391,403\n317,405,241,391,403\n316,405,241,391,404\n316,406,241,390,404\n316,406,240,391,404\n315,405,239,391,404\n316,405,238,391,405\n316,406,238,391,404\n315,406,237,391,405\n315,406,236,392,404\n315,407,236,390,404\n315,406,235,391,405\n', b'314,406,235,391,404\n314,405,234,391,404\n315,406,234,391,405\n314,406,233,392,405\n314,405,232,391,405\n314,406,232,391,405\n314,405,232,392,405\n314,406,231,391,405\n314,406,231,392,406\n313,406,231,392,405\n313,406,231,391,405\n313,406,229,392,406\n313,406,229,392,406\n312,405,229,393,406\n313,406,229,392,406\n312,405,228,392,405\n312,405,227,392,406\n312,406,227,392,406\n312,404,223,392,405\n312,406,223,393,406\n312,406,223,392,406\n312,405,223,392,406\n311,405,224,391,406\n312,406,223,392,407\n312,406,223,393,407\n311,405,222,392,406\n311,406,223,392,406\n312,406,221,391,409\n311,405,221,392,407\n311,406,220,392,407\n310,406,219,392,407\n310,406,220,392,407\n310,405,220,392,406\n310,406,218,392,407\n310,406,218,392,407\n310,406,218,392,408\n308,406,217,392,407\n310,405,217,392,407\n309,406,217,392,407\n309,406,216,392,407\n308,405,218,393,408\n307,406,217,392,407\n309,406,218,393,407\n308,405,217,393,407\n308,405,218,392,407\n308,406,219,392,407\n308,406,219,392,407\n308,407,219,393,409\n307,406,217,393,408\n308,406,218,393,408\n', b'307,405,220,393,407\n307,406,219,393,408\n307,406,219,393,407\n307,406,219,393,408\n306,406,219,393,407\n306,406,218,393,408\n305,406,218,393,408\n307,405,218,393,408\n306,406,218,393,408\n307,406,219,394,408\n306,406,218,393,409\n306,405,218,393,408\n306,406,219,393,408\n306,405,218,393,408\n306,406,218,393,408\n306,405,218,393,408\n305,406,217,394,409\n306,407,217,394,408\n305,406,217,394,409\n305,406,217,393,409\n305,406,217,394,409\n305,406,218,393,408\n304,406,217,394,408\n305,406,217,395,409\n305,406,216,394,409\n305,406,217,394,408\n305,406,217,394,409\n305,406,216,394,409\n305,406,216,394,409\n304,406,216,394,409\n304,406,217,394,409\n305,406,216,395,408\n304,407,216,394,409\n304,406,216,393,409\n303,405,216,394,409\n304,406,216,394,409\n303,405,215,394,410\n304,406,216,394,409\n302,405,215,394,409\n303,405,215,394,409\n303,406,216,395,409\n303,406,214,394,409\n303,406,216,395,409\n303,406,215,394,409\n302,407,214,395,409\n302,405,214,396,409\n302,406,214,395,409\n302,406,215,395,409\n302,406,214,395,409\n302,407,214,395,408\n']___EMG_[b'0.016,-187500.016][-2895.154,1788.765,3796.801,6493.919,-187500.016,-187500.016,-187500.016,-187500.016][-2894.685,1786.195,3810.257,6567.903,-187500.016,-187500.016,-187500.016,-187500.016][-2910.488,1765.631,3762.782,6532.923,-187500.016,-187500.016,-187500.016,-187500.016][-2909.102,1771.063,3745.236,6453.730,-187500.016,-187500.016,-187500.016,-187500.016][-2917.059,1764.849,3783.882,6552.101,-187500.016,-187500.016,-187500.016,-187500.016][-2901.949,1772.605,3819.667,6656.349,-187500.016,-187500.016,-187500.016,-187500.016][-2917.663,1764.022,3796.131,6563.098,-187500.016,-187500.016,-187500.016,-187500.016][-2895.847,1775.913,3783.904,6464.571,-187500.016,-187500.016,-187500.016,-187500.016][-2899.446,1772.225,3787.592,6531.783,-187500.016,-187500.016,-187500.016,-187500.016][-2918.601,1764.223,3798.433,6636.635,-187500.016,-187500.016,-187500.016,-187500.016][-2941.109,1748.130,3787.749,6565.489,-187500.016,-187500.016,-187500.016,-187500.016][-2932.973,1743.235,3728.383,6456.100,-187500.016,-187500.016,-187500.016,-187500.016][-2879.620,1791.291,3807.038,6530.621,-187500.016,-187500.016,-187500.016,-187500.016][-2881.609,1786.485,3825.255,6636.836,-187500.016,-187500.016,-187500.016,-187500.016][-2888.002,1781.903,3808.290,6618.620,-187500.016,-187500.016,-187500.016,-187500.016][-2913.192,1779.624,3800.869,6490.343,-187500.016,-187500.016,-187500.016,-187500.016][-2924.770,1775.846,3785.268,6484.107,-187500.016,-187500.016,-187500.016,-187500.016][-2924.905,1728.751,3746.331,6625.124,-187500.016,-187500.016,-187500.016,-187500.016][-2893.411,1777.165,3803.127,6536.768,-187500.016,-187500.016,-187500.016,-187500.016][-2890.796,1779.176,3792.152,6490.432,-187500.016,-187500.016,-187500.016,-187500.016][-2925.665,1757.138,3796.488,6576.799,-187500.016,-187500.016,-187500.016,-187500.016][-2942.451,1737.133,3766.671,6618.195,-187500.016,-187500.016,-187500.016,-187500.016][-2920.568,1762.077,3772.103,6518.976,-187500.016,-187500.016,-187500.016,-187500.016][-2952.710,1718.313,3739.983,6413.855,-187500.016,-187500.016,-187500.016,-187500.016][-2907.425,1766.481,3831.156,6556.169,-187500.016,-187500.016,-187500.016,-187500.016][-2886.214,1795.225,3831.804,6666.944,-187500.016,-187500.016,-187500.016,-187500.016][-2899.178,1792.297,3793.247,6555.342,-187500.016,-187500.016,-187500.016,-187500.016][-2927.810,1788.408,3775.522,6443.203,-187500.016,-187500.016,-187500.016,-187500.016][-2973.587,1754.589,3751.092,6484.084,-187500.016,-187500.016,-187500.016,-187500.016][-2939.947,1741.603,3762.871,6637.999,-187500.016,-187500.016,-187500.016,-187500.016][-2894.014,1755.193,3780.753,6609.321,-187500.016,-187500.016,-187500.016,-187500.016][-2892.271,1750.566,3748.589,6500.580,-187500.016,-187500.016,-187500.016,-187500.016][-2904.363,1753.897,3788.978,6525.391,-187500.016,-187500.016,-187500.016,-187500.016][-2920.836,1769.789,3808.961,6617.077,-187500.016,-187500.016,-187500.016,-187500.016][-2945.267,1783.557,3769.085,6541.819,-187500.016,-187500.016,-187500.016,-187500.016][-2935.410,1800.746,3747.113,6442.801,-187500.016,-187500.016,-187500.016,-187500.016][-2928.414,1745.559,3742.978,6517.098,-187500.016,-187500.016,-187500.016,-187500.016][-2912.857,1735.479,3787.838,6634.176,-187500.016,-187500.016,-187500.016,-187500.016][-2894.529,1793.146,3806.234,6572.374,-187500.016,-187500.016,-187500.016,-187500.016][-2884.828,1822.405,3781.423,6467.723,-187500.016,-187500.016,-187500.016,-187500.016][-2927.453,1816.549,3757.127,6487.437,-187500.016,-187500.016,-187500.016,-187500.016][-2992.027,1723.185,3737.793,6583.840,-187500.016,-187500.016,-187500.016,-187500.016][-2928.414,1745.895,3839.113,6602.236,-187500.016,-187500.016,-187500.016,-187500.016][-2936.706,1753.315,3750.690,6462.247,-187500.016,-187500.016,-187500.016,-187500.016][-2915.584,1775.377,3775.701,6475.926,-187500.016,-187500.016,-187500.016,-187500.016][-2930.738,1746.319,3802.210,6623.045,-187500.016,-187500.016,-187500.016,-187500.016][-2910.912,1761.295,3836.990,6727.853,-187500.016,-187500.016,-187500.016,-187500.016][-2918.132,1770.236,3795.416,6556.01', b'2,-187500.016,-187500.016,-187500.016,-187500.016][-2877.832,1815.319,3787.548,6431.066,-187500.016,-187500.016,-187500.016,-187500.016][-2920.278,1772.806,3795.751,6524.072,-187500.016,-187500.016,-187500.016,-187500.016][-2971.307,1722.559,3763.341,6567.590,-187500.016,-187500.016,-187500.016,-187500.016][-2869.875,1809.418,3821.031,6580.867,-187500.016,-187500.016,-187500.016,-187500.016][-2892.293,1793.906,3783.748,6489.449,-187500.016,-187500.016,-187500.016,-187500.016][-2944.820,1757.585,3786.296,6496.065,-187500.016,-187500.016,-187500.016,-187500.016][-3006.689,1725.801,3752.813,6558.694,-187500.016,-187500.016,-187500.016,-187500.016][-2971.575,1769.968,3724.985,6506.771,-187500.016,-187500.016,-187500.016,-187500.016][-2869.696,1820.505,3798.701,6495.886,-187500.016,-187500.016,-187500.016,-187500.016][-2885.923,1782.619,3811.710,6555.722,-187500.016,-187500.016,-187500.016,-187500.016][-2914.064,1774.393,3806.614,6647.096,-187500.016,-187500.016,-187500.016,-187500.016][-2956.175,1737.602,3793.784,6577.872,-187500.016,-187500.016,-187500.016,-187500.016][-2968.244,1736.418,3712.513,6420.069,-187500.016,-187500.016,-187500.016,-187500.016][-2876.915,1810.402,3738.687,6504.782,-187500.016,-187500.016,-187500.016,-187500.016][-2889.879,1806.155,3833.592,6675.549,-187500.016,-187500.016,-187500.016,-187500.016][-2964.601,1703.382,3727.466,6611.422,-187500.016,-187500.016,-187500.016,-187500.016][-2916.947,1765.676,3766.582,6508.090,-187500.016,-187500.016,-187500.016,-187500.016][-2924.703,1774.863,3797.293,6497.384,-187500.016,-187500.016,-187500.016,-187500.016][-2934.493,1753.338,3817.857,6640.435,-187500.016,-187500.016,-187500.016,-187500.016][-2906.934,1820.639,3837.213,6609.992,-187500.016,-187500.016,-187500.016,-187500.016][-2973.609,1807.206,3765.844,6405.004,-187500.016,-187500.016,-187500.016,-187500.016][-2966.792,1780.830,3715.441,6384.396,-187500.016,-187500.016,-187500.016,-187500.016][-2925.307,1732.595,3725.566,6583.818,-187500.016,-187500.016,-187500.016,-187500.016][-2946.698,1688.250,3726.594,6662.831,-187500.016,-187500.016,-187500.016,-187500.016][-2935.410,1749.717,3786.073,6527.447,-187500.016,-187500.016,-187500.016,-187500.016][-2892.003,1808.480,3812.068,6430.440,-187500.016,-187500.016,-187500.016,-187500.016][-2954.431,1795.694,3797.405,6507.979,-187500.016,-187500.016,-187500.016,-187500.016][-2961.092,1797.214,3793.247,6615.334,-187500.016,-187500.016,-187500.016,-187500.016][-2902.799,1759.239,3776.685,6547.340,-187500.016,-187500.016,-187500.016,-187500.016][-2918.981,1748.197,3760.435,6447.495,-187500.016,-187500.016,-187500.016,-187500.016][-2919.942,1794.621,3811.933,6526.173,-187500.016,-187500.016,-187500.016,-187500.016][-2912.276,1821.444,3778.920,6642.759,-187500.016,-187500.016,-187500.016,-187500.016][-2877.988,1837.224,3789.939,6616.764,-187500.016,-187500.016,-187500.016,-187500.016][-2947.569,1747.482,3726.885,6527.223,-187500.016,-187500.016,-187500.016,-187500.016][-2966.344,1724.169,3768.012,6535.874,-187500.016,-187500.016,-187500.016,-187500.016][-2888.337,1777.522,3860.973,6650.851,-187500.016,-187500.016,-187500.016,-187500.016][-2927.788,1749.158,3797.762,6560.460,-187500.016,-187500.016,-187500.016,-187500.016][-2926.760,1766.592,3800.936,6447.316,-187500.016,-187500.016,-187500.016,-187500.016][-2935.589,1756.802,3785.536,6485.493,-187500.016,-187500.016,-187500.016,-187500.016][-2945.446,1732.886,3742.710,6613.233,-187500.016,-187500.016,-187500.016,-187500.016][-2981.700,1726.583,3712.558,6540.008,-187500.016,-187500.016,-187500.016,-187500.016][-2926.827,1758.322,3752.768,6503.128,-187500.016,-187500.016,-187500.016,-187500.016][-2915.383,1747.772,3756.099,6505.877,-187500.016,-187500.016,-187500.016,-187500.016][-2922.423,1764.089,3797.807,6603.733,-187500.016,-187500.016,-187500.016,-187500.016][-2937.042,1787.581,3813.163,6627.538,-187500.016,-187500.016,-187500.016,-187500.016][-2969.809,1794.420,3748.790,6459.251,-187500.016,-187500.016,-187500.016,-187500.016][-2982.080,1788.184,3733.144,6411.911,-187500.016,-187500.016,-187500.016,-187500.016][-30']
INDEX_b'3.6116812229156494'___FLEX_[b'301,406,213,395,409\n302,406,215,395,408\n301,406,213,395,410\n301,406,213,395,410\n301,406,214,395,410\n302,406,213,395,409\n302,406,213,395,409\n301,407,213,395,410\n302,406,213,394,409\n302,406,214,395,410\n302,406,213,395,409\n302,406,214,395,409\n301,405,212,395,409\n301,406,213,395,410\n301,406,213,395,409\n301,406,213,395,411\n301,406,213,395,409\n300,406,213,395,409\n301,406,214,394,411\n301,406,213,395,410\n301,406,213,395,410\n302,405,213,395,409\n301,406,214,395,410\n301,406,214,395,410\n301,406,213,395,410\n301,406,213,396,410\n301,406,214,395,409\n301,406,212,395,410\n300,406,213,395,410\n301,405,214,396,410\n300,406,214,395,410\n300,406,213,395,410\n300,406,213,395,410\n300,406,212,395,410\n300,406,213,395,410\n300,406,213,395,410\n300,406,213,395,410\n300,406,213,395,410\n298,406,213,395,410\n300,406,212,395,410\n300,406,213,395,410\n300,406,212,395,410\n300,406,212,395,410\n299,406,211,395,410\n299,406,211,395,410\n300,406,210,395,410\n299,406,211,395,410\n299,406,210,395,411\n299,407,210,396,410\n299,406,210,395,411\n', b'298,406,209,395,410\n299,406,209,395,411\n298,406,210,395,410\n299,406,210,395,411\n298,404,210,395,410\n299,406,210,395,410\n298,406,210,395,410\n298,406,210,396,411\n298,406,208,396,411\n298,406,209,396,410\n298,405,209,395,410\n298,406,209,395,410\n298,406,209,395,410\n298,405,209,395,410\n297,407,209,396,410\n298,407,209,396,410\n297,406,208,395,410\n297,406,209,396,411\n298,406,209,396,410\n298,406,208,396,411\n297,406,208,395,410\n297,406,208,395,411\n297,406,207,395,411\n297,406,208,396,411\n297,405,208,396,411\n297,406,209,396,410\n297,406,209,395,411\n297,406,207,396,411\n297,406,209,396,411\n297,406,208,397,411\n296,406,208,395,410\n297,406,208,396,411\n296,406,209,395,411\n296,406,209,396,411\n296,406,209,396,410\n296,405,209,395,411\n295,406,208,396,411\n296,406,207,396,410\n296,407,208,395,411\n296,406,207,396,412\n295,406,207,395,411\n296,406,208,396,411\n295,406,208,396,410\n295,406,207,396,411\n296,406,207,395,411\n296,406,207,396,412\n295,407,207,396,411\n295,406,207,396,411\n295,406,206,395,412\n295,406,207,395,411\n', b'295,406,204,396,411\n295,406,205,396,411\n295,406,204,396,411\n295,406,204,396,411\n295,405,201,396,411\n295,406,204,395,411\n295,406,204,395,412\n295,406,204,396,411\n294,405,204,396,410\n295,406,206,396,411\n294,406,204,396,412\n295,406,205,395,411\n294,405,205,396,411\n295,406,205,396,411\n295,406,204,395,411\n294,406,204,396,411\n294,406,204,396,412\n294,406,205,396,412\n295,407,205,397,412\n294,406,205,396,411\n294,406,205,396,411\n294,406,206,396,411\n294,406,205,396,411\n294,405,206,396,412\n294,405,207,396,411\n293,407,208,395,411\n294,406,209,396,411\n294,406,208,396,411\n293,406,206,396,412\n294,406,205,396,411\n292,406,207,396,411\n294,406,207,396,412\n293,406,208,395,411\n294,406,208,396,412\n293,405,208,395,412\n294,406,208,396,411\n293,406,208,396,411\n293,406,208,396,411\n293,406,209,396,412\n293,406,207,396,412\n293,406,207,396,411\n293,406,209,396,411\n293,406,209,395,412\n293,406,208,395,411\n292,407,209,396,412\n293,406,208,396,412\n292,406,207,395,412\n292,406,208,396,411\n291,406,209,396,412\n293,406,208,396,412\n', b'291,406,209,396,411\n291,406,207,396,410\n291,407,209,396,412\n294,406,208,396,412\n292,406,208,396,411\n293,406,208,395,411\n291,406,208,396,411\n293,406,209,396,412\n292,407,209,396,413\n292,406,209,396,412\n292,406,209,397,411\n292,405,208,396,413\n292,407,209,396,412\n292,405,207,396,412\n292,406,209,396,412\n292,406,208,396,412\n291,406,208,396,412\n292,407,208,396,412\n291,406,208,395,412\n292,406,208,396,412\n292,406,209,396,412\n292,407,208,396,412\n292,406,208,395,412\n292,406,209,396,412\n291,406,208,395,412\n292,406,208,396,412\n291,406,208,396,412\n292,406,208,396,412\n291,406,209,396,412\n292,406,209,396,412\n292,406,210,396,412\n292,406,209,396,412\n292,406,209,396,411\n292,406,210,396,411\n291,406,209,396,412\n291,406,208,396,412\n292,406,208,396,412\n292,407,208,396,413\n291,405,209,395,412\n291,406,207,396,412\n291,405,208,396,412\n292,406,207,396,413\n291,406,208,396,412\n291,406,208,396,413\n292,406,207,396,412\n291,406,207,396,412\n291,406,208,396,413\n292,406,208,396,412\n291,406,208,396,413\n291,406,206,396,412\n', b'291,406,207,396,412\n291,406,207,396,412\n291,406,206,396,412\n291,406,207,396,413\n291,406,208,396,412\n291,406,207,396,412\n291,406,207,396,412\n291,406,206,396,412\n290,406,206,396,411\n291,406,206,396,412\n291,406,207,396,413\n291,406,207,396,413\n291,406,207,396,413\n291,405,206,396,412\n291,406,207,396,412\n291,407,207,396,412\n290,406,206,396,411\n291,406,208,396,412\n291,406,208,396,413\n291,406,207,396,412\n290,406,206,396,413\n290,406,208,397,412\n290,406,208,396,412\n291,406,207,396,412\n290,407,209,396,413\n290,405,208,396,412\n290,406,207,396,413\n290,406,209,396,412\n290,405,208,395,413\n290,406,209,396,412\n290,406,210,396,413\n291,406,210,396,412\n290,406,210,396,413\n291,407,209,396,413\n290,406,208,396,412\n290,406,210,396,413\n290,406,210,396,413\n290,406,209,396,413\n290,406,209,396,412\n290,405,209,396,413\n290,406,209,396,412\n290,406,210,396,413\n290,407,210,396,412\n291,406,209,396,412\n289,407,209,397,412\n290,406,210,396,412\n289,405,209,395,412\n290,406,210,396,413\n289,406,211,396,412\n290,406,210,396,412\n']___EMG_[b'17.754,1698.129,3694.944,6534.622,-187500.016,-187500.016,-187500.016,-187500.016][-2939.858,1738.653,3829.122,6629.617,-187500.016,-187500.016,-187500.016,-187500.016][-2946.206,1704.164,3805.921,6466.627,-187500.016,-187500.016,-187500.016,-187500.016][-2846.740,1802.243,3788.755,6558.136,-187500.016,-187500.016,-187500.016,-187500.016][-2887.041,1804.836,3752.075,6590.479,-187500.016,-187500.016,-187500.016,-187500.016][-2938.003,1773.410,3755.719,6638.959,-187500.016,-187500.016,-187500.016,-187500.016][-2891.466,1790.464,3785.223,6555.051,-187500.016,-187500.016,-187500.016,-187500.016][-2914.533,1743.458,3748.656,6433.838,-187500.016,-187500.016,-187500.016,-187500.016][-2913.974,1746.699,3756.322,6536.857,-187500.016,-187500.016,-187500.016,-187500.016][-2942.406,1767.956,3809.139,6631.830,-187500.016,-187500.016,-187500.016,-187500.016][-3004.901,1761.384,3740.542,6506.123,-187500.016,-187500.016,-187500.016,-187500.016][-2953.470,1742.341,3726.617,6447.941,-187500.016,-187500.016,-187500.016,-187500.016][-2959.304,1701.616,3759.854,6510.661,-187500.016,-187500.016,-187500.016,-187500.016][-2925.240,1773.119,3797.248,6645.218,-187500.016,-187500.016,-187500.016,-187500.016][-2876.535,1804.412,3782.764,6662.809,-187500.016,-187500.016,-187500.016,-187500.016][-2913.974,1764.268,3784.240,6501.765,-187500.016,-187500.016,-187500.016,-187500.016][-2984.852,1716.457,3782.720,6456.480,-187500.016,-187500.016,-187500.016,-187500.016][-3025.666,1676.202,3719.844,6578.655,-187500.016,-187500.016,-187500.016,-187500.016][-2956.890,1758.099,3777.802,6707.110,-187500.016,-187500.016,-187500.016,-187500.016][-2895.534,1792.409,3818.460,6500.267,-187500.016,-187500.016,-187500.016,-187500.016][-2933.130,1752.913,3735.893,6439.939,-187500.016,-187500.016,-187500.016,-187500.016][-2951.056,1806.714,3794.611,6587.685,-187500.016,-187500.016,-187500.016,-187500.016][-2917.059,1835.525,3789.224,6575.749,-187500.016,-187500.016,-187500.016,-187500.016][-2921.194,1759.775,3739.022,6475.322,-187500.016,-187500.016,-187500.016,-187500.016][-2967.440,1681.388,3714.659,6424.137,-187500.016,-187500.016,-187500.016,-187500.016][-2958.007,1698.643,3776.394,6561.421,-187500.016,-187500.016,-187500.016,-187500.016][-2892.740,1815.140,3846.936,6671.839,-187500.016,-187500.016,-187500.016,-187500.016][-2996.832,1825.646,3738.128,6461.397,-187500.016,-187500.016,-187500.016,-187500.016][-3026.270,1818.292,3689.915,6373.645,-187500.016,-187500.016,-187500.016,-187500.016][-2906.755,1734.205,3747.248,6547.787,-187500.016,-187500.016,-187500.016,-187500.016][-2919.071,1678.392,3751.539,6659.858,-187500.016,-187500.016,-187500.016,-187500.016][-2922.177,1717.173,3767.945,6615.535,-187500.016,-187500.016,-187500.016,-187500.016][-2888.628,1800.701,3818.080,6490.812,-187500.016,-187500.016,-187500.016,-187500.016][-2908.655,1827.277,3849.015,6517.321,-187500.016,-187500.016,-187500.016,-187500.016][-2955.660,1798.667,3799.729,6613.903,-187500.016,-187500.016,-187500.016,-187500.016][-2924.636,1771.309,3786.631,6574.609,-187500.016,-187500.016,-187500.016,-187500.016][-2965.361,1685.925,3714.279,6449.350,-187500.016,-187500.016,-187500.016,-187500.016][-3034.652,1609.683,3686.071,6503.978,-187500.016,-187500.016,-187500.016,-187500.016][-2940.908,1731.321,3875.658,6628.543,-187500.016,-187500.016,-187500.016,-187500.016][-2879.888,1809.776,3807.083,6611.288,-187500.016,-187500.016,-187500.016,-187500.016][-2968.244,1780.965,3755.451,6468.952,-187500.016,-187500.016,-187500.016,-187500.016][-2948.709,1736.306,3783.368,6559.231,-187500.016,-187500.016,-187500.016,-187500.016][-2957.784,1689.278,3804.244,6678.791,-187500.016,-187500.016,-187500.016,-187500.016][-2909.728,1770.437,3833.861,6630.488,-187500.016,-187500.016,-187500.016,-187500.016][-2922.200,1767.263,3781.982,6481.067,-187500.016,-187500.016,-187500.016,-187500.016][-2948.284,1774.885,3772.997,6456.882,-187500.016,-187500.016,-187500.016,-187500.016][-2962.902,1791.917,3780.753,6552.369,-187500.016,-187500.016,-187500.016,-187500.016][-2989.613,1699.492,3716.380,6521.747,-187500.016,-187500.', b'016,-187500.016,-187500.016][-2902.039,1760.803,3831.849,6502.391,-187500.016,-187500.016,-187500.016,-187500.016][-2868.086,1801.886,3847.406,6526.396,-187500.016,-187500.016,-187500.016,-187500.016][-2961.002,1727.745,3817.141,6613.501,-187500.016,-187500.016,-187500.016,-187500.016][-3020.324,1740.284,3781.289,6565.221,-187500.016,-187500.016,-187500.016,-187500.016][-3000.923,1841.113,3744.073,6446.712,-187500.016,-187500.016,-187500.016,-187500.016][-2939.858,1829.557,3800.400,6452.412,-187500.016,-187500.016,-187500.016,-187500.016][-2909.772,1734.428,3813.029,6570.898,-187500.016,-187500.016,-187500.016,-187500.016][-2951.794,1652.241,3760.658,6619.044,-187500.016,-187500.016,-187500.016,-187500.016][-2957.717,1694.955,3812.269,6598.659,-187500.016,-187500.016,-187500.016,-187500.016][-2956.152,1724.571,3836.587,6508.626,-187500.016,-187500.016,-187500.016,-187500.016][-2925.530,1739.569,3798.277,6529.905,-187500.016,-187500.016,-187500.016,-187500.016][-2989.523,1718.491,3778.786,6622.911,-187500.016,-187500.016,-187500.016,-187500.016][-2971.508,1751.684,3791.929,6569.289,-187500.016,-187500.016,-187500.016,-187500.016][-2859.839,1795.963,3875.345,6612.719,-187500.016,-187500.016,-187500.016,-187500.016][-2884.805,1787.536,3872.686,6521.680,-187500.016,-187500.016,-187500.016,-187500.016][-2987.109,1755.305,3850.937,6553.062,-187500.016,-187500.016,-187500.016,-187500.016][-2983.332,1703.829,3760.726,6546.178,-187500.016,-187500.016,-187500.016,-187500.016][-2920.054,1737.177,3791.683,6517.880,-187500.016,-187500.016,-187500.016,-187500.016][-2910.443,1772.583,3839.538,6563.724,-187500.016,-187500.016,-187500.016,-187500.016][-2910.018,1801.908,3883.459,6598.011,-187500.016,-187500.016,-187500.016,-187500.016][-2945.110,1752.958,3837.526,6594.681,-187500.016,-187500.016,-187500.016,-187500.016][-2945.535,1763.284,3838.443,6487.728,-187500.016,-187500.016,-187500.016,-187500.016][-3012.054,1709.372,3731.378,6396.756,-187500.016,-187500.016,-187500.016,-187500.016][-2965.071,1741.737,3827.714,6566.093,-187500.016,-187500.016,-187500.016,-187500.016][-2870.344,1825.936,3981.382,6708.049,-187500.016,-187500.016,-187500.016,-187500.016][-2933.845,1793.593,3888.108,6540.076,-187500.016,-187500.016,-187500.016,-187500.016][-3015.161,1809.508,3800.981,6397.181,-187500.016,-187500.016,-187500.016,-187500.016][-3024.102,1764.648,3803.283,6502.480,-187500.016,-187500.016,-187500.016,-187500.016][-2969.183,1661.807,3763.944,6577.761,-187500.016,-187500.016,-187500.016,-187500.016][-2964.109,1649.469,3828.876,6563.344,-187500.016,-187500.016,-187500.016,-187500.016][-2958.991,1697.526,3841.393,6563.276,-187500.016,-187500.016,-187500.016,-187500.016][-2910.622,1755.059,3929.615,6649.331,-187500.016,-187500.016,-187500.016,-187500.016][-2918.959,1762.547,3918.708,6674.074,-187500.016,-187500.016,-187500.016,-187500.016][-2918.579,1815.498,3851.943,6566.965,-187500.016,-187500.016,-187500.016,-187500.016][-2954.163,1746.029,3828.474,6402.635,-187500.016,-187500.016,-187500.016,-187500.016][-2964.646,1727.589,3871.009,6506.146,-187500.016,-187500.016,-187500.016,-187500.016][-2977.230,1750.477,3868.908,6638.423,-187500.016,-187500.016,-187500.016,-187500.016][-3000.811,1797.952,3824.473,6488.488,-187500.016,-187500.016,-187500.016,-187500.016][-2954.409,1710.557,3825.322,6516.338,-187500.016,-187500.016,-187500.016,-187500.016][-2913.438,1725.421,3912.360,6588.937,-187500.016,-187500.016,-187500.016,-187500.016][-2945.110,1743.391,3890.343,6659.926,-187500.016,-187500.016,-187500.016,-187500.016][-2989.993,1754.478,3878.296,6598.928,-187500.016,-187500.016,-187500.016,-187500.016][-2931.476,1778.439,3855.072,6462.247,-187500.016,-187500.016,-187500.016,-187500.016][-2955.549,1740.150,3899.664,6504.357,-187500.016,-187500.016,-187500.016,-187500.016][-2964.221,1742.207,3901.832,6610.170,-187500.016,-187500.016,-187500.016,-187500.016][-2909.102,1778.662,3915.623,6612.920,-187500.016,-187500.016,-187500.016,-187500.016][-2977.230,1746.409,3831.022,6425.076,-187500.016,-187500.016,-187500.016,-187500.016][-2999.157,1748.890,3822.4']
INDEX_b'4.012608289718628'___FLEX_[b'290,407,211,396,412\n290,406,212,396,413\n289,407,211,396,412\n291,406,210,397,412\n289,406,211,395,413\n290,405,211,396,413\n290,406,212,396,413\n290,406,210,396,413\n289,406,211,396,412\n290,406,210,395,413\n290,407,211,397,413\n290,406,211,397,413\n289,406,211,396,413\n290,406,211,395,413\n289,405,211,396,412\n290,407,212,396,414\n290,406,211,395,412\n290,406,212,396,413\n289,406,212,396,413\n290,406,212,395,413\n289,405,211,396,410\n289,405,212,396,413\n288,406,212,395,412\n289,406,212,397,413\n289,406,212,395,413\n289,405,213,396,414\n289,406,212,396,413\n290,406,212,396,413\n289,406,213,397,413\n289,406,212,396,413\n289,406,212,396,413\n289,407,212,396,413\n289,406,212,396,413\n290,406,213,396,413\n289,406,212,396,413\n289,406,213,396,413\n289,406,213,396,413\n290,406,212,396,413\n288,406,213,396,413\n289,406,213,396,413\n289,406,213,396,412\n289,406,213,396,413\n289,407,212,396,413\n289,406,213,396,413\n288,406,211,396,412\n288,406,212,396,413\n288,407,212,396,414\n289,406,211,396,413\n288,406,211,396,413\n288,405,212,396,413\n', b'288,404,211,396,413\n289,406,211,396,413\n289,406,211,396,413\n288,406,211,396,414\n288,406,212,396,413\n288,405,210,396,413\n288,406,210,396,414\n288,406,210,396,413\n288,406,211,396,413\n288,405,211,396,413\n288,406,211,395,413\n288,406,211,396,413\n288,406,210,396,414\n288,406,211,396,413\n288,405,214,396,413\n288,405,211,396,414\n288,405,210,396,413\n288,406,210,396,413\n287,407,210,396,413\n288,406,210,395,413\n287,406,210,396,413\n288,405,209,396,413\n287,406,210,396,413\n288,405,211,396,413\n288,405,210,395,413\n288,406,212,396,413\n287,406,212,396,413\n287,405,212,395,413\n287,405,212,395,413\n288,406,212,395,412\n287,405,211,396,413\n287,406,211,396,413\n287,405,212,395,413\n287,406,212,396,413\n286,406,213,396,413\n287,406,212,396,413\n287,406,212,396,413\n287,406,212,396,414\n287,405,211,396,413\n286,405,211,395,414\n286,406,212,396,412\n286,405,213,395,413\n286,406,212,396,413\n286,406,213,396,412\n286,406,212,396,413\n287,405,212,395,413\n287,405,212,396,413\n286,405,212,396,413\n285,406,213,395,413\n287,405,213,396,413\n', b'286,406,213,396,413\n287,405,213,396,413\n286,405,212,396,413\n286,405,213,396,413\n286,405,212,396,413\n287,406,213,396,414\n286,406,213,396,413\n286,406,214,396,413\n286,405,214,394,413\n287,405,213,396,413\n287,407,213,396,414\n287,406,213,395,413\n286,406,212,395,413\n286,405,213,396,413\n286,405,214,396,413\n286,406,213,396,413\n286,405,213,397,413\n287,405,213,396,413\n285,405,213,396,413\n287,406,214,395,414\n285,406,213,396,413\n286,405,213,396,413\n286,405,213,396,413\n286,405,214,397,413\n286,405,213,396,413\n285,405,213,396,413\n286,406,213,396,414\n286,406,213,396,413\n286,406,212,396,414\n286,406,213,395,413\n286,406,213,396,414\n285,406,213,396,414\n285,406,213,395,414\n284,405,213,396,414\n286,406,214,396,414\n286,406,213,395,413\n285,405,213,396,413\n286,406,213,396,413\n286,406,213,396,412\n286,405,213,396,414\n286,406,213,396,414\n286,405,213,396,414\n285,405,213,396,413\n286,405,213,396,414\n285,406,213,396,414\n286,405,213,396,413\n286,406,214,396,414\n286,406,213,396,414\n285,405,213,396,414\n286,405,213,396,413\n', b'285,406,212,396,414\n286,405,213,396,413\n286,406,212,395,413\n286,405,214,396,413\n286,406,214,397,414\n286,405,212,396,413\n286,406,213,396,414\n287,405,214,396,414\n286,406,214,396,414\n286,406,213,396,413\n286,405,214,396,413\n286,405,214,396,414\n285,405,214,396,413\n286,406,213,396,414\n285,405,214,396,414\n286,405,212,396,414\n286,406,214,397,414\n286,406,214,397,414\n285,406,213,396,414\n286,405,213,396,414\n285,405,213,397,414\n286,405,213,396,413\n286,405,214,396,414\n286,405,213,396,414\n286,406,214,396,414\n286,406,215,396,413\n286,405,213,396,414\n286,405,214,396,415\n285,405,213,396,414\n286,405,214,396,415\n285,405,214,396,414\n286,405,214,396,414\n285,405,213,396,413\n286,405,214,396,414\n285,406,214,396,415\n286,405,214,396,414\n285,406,214,396,414\n286,405,213,396,414\n285,405,214,396,415\n286,405,214,396,413\n286,406,214,396,414\n286,405,214,396,414\n285,405,215,396,413\n286,405,214,396,414\n286,406,214,396,415\n285,405,213,396,413\n286,407,214,396,414\n286,405,213,396,414\n285,405,214,396,414\n285,406,213,396,414\n']___EMG_[b'83,6430.284,-187500.016,-187500.016,-187500.016,-187500.016][-2901.905,1866.326,3948.368,6614.015,-187500.016,-187500.016,-187500.016,-187500.016][-2889.432,1786.284,3883.101,6641.687,-187500.016,-187500.016,-187500.016,-187500.016][-2980.001,1657.471,3843.360,6510.146,-187500.016,-187500.016,-187500.016,-187500.016][-3051.013,1631.968,3878.542,6490.142,-187500.016,-187500.016,-187500.016,-187500.016][-3004.164,1723.118,3889.852,6648.392,-187500.016,-187500.016,-187500.016,-187500.016][-2908.007,1819.611,3914.416,6695.845,-187500.016,-187500.016,-187500.016,-187500.016][-2941.244,1815.364,3920.764,6537.594,-187500.016,-187500.016,-187500.016,-187500.016][-3022.403,1780.495,3823.802,6377.779,-187500.016,-187500.016,-187500.016,-187500.016][-2963.171,1708.791,3781.446,6483.481,-187500.016,-187500.016,-187500.016,-187500.016][-2914.332,1700.096,3932.633,6695.577,-187500.016,-187500.016,-187500.016,-187500.016][-2906.554,1750.097,3954.716,6617.703,-187500.016,-187500.016,-187500.016,-187500.016][-2942.048,1765.475,3907.889,6494.567,-187500.016,-187500.016,-187500.016,-187500.016][-2937.712,1815.319,3902.771,6545.999,-187500.016,-187500.016,-187500.016,-187500.016][-2927.609,1780.786,3905.542,6622.017,-187500.016,-187500.016,-187500.016,-187500.016][-2938.181,1708.321,3891.528,6595.620,-187500.016,-187500.016,-187500.016,-187500.016][-2991.021,1719.453,3888.555,6438.956,-187500.016,-187500.016,-187500.016,-187500.016][-2963.260,1752.913,3878.944,6539.472,-187500.016,-187500.016,-187500.016,-187500.016][-3020.011,1666.635,3817.901,6628.700,-187500.016,-187500.016,-187500.016,-187500.016][-2966.814,1709.193,3904.358,6638.468,-187500.016,-187500.016,-187500.016,-187500.016][-2903.425,1845.494,3956.259,6535.605,-187500.016,-187500.016,-187500.016,-187500.016][-2980.359,1857.229,3886.543,6432.273,-187500.016,-187500.016,-187500.016,-187500.016][-2989.099,1766.749,3866.248,6580.375,-187500.016,-187500.016,-187500.016,-187500.016][-2982.795,1656.711,3857.419,6590.457,-187500.016,-187500.016,-187500.016,-187500.016][-3023.655,1634.203,3859.274,6502.748,-187500.016,-187500.016,-187500.016,-187500.016][-2962.098,1716.055,3874.697,6609.880,-187500.016,-187500.016,-187500.016,-187500.016][-2939.254,1800.858,3957.957,6569.647,-187500.016,-187500.016,-187500.016,-187500.016][-2975.978,1772.024,3859.789,6566.250,-187500.016,-187500.016,-187500.016,-187500.016][-2998.866,1778.484,3809.095,6496.803,-187500.016,-187500.016,-187500.016,-187500.016][-2979.935,1747.482,3845.930,6525.391,-187500.016,-187500.016,-187500.016,-187500.016][-2930.068,1734.831,3935.717,6669.716,-187500.016,-187500.016,-187500.016,-187500.016][-2940.059,1782.060,3936.120,6629.885,-187500.016,-187500.016,-187500.016,-187500.016][-3016.323,1731.098,3843.360,6471.366,-187500.016,-187500.016,-187500.016,-187500.016][-2953.336,1734.585,3850.937,6506.727,-187500.016,-187500.016,-187500.016,-187500.016][-2944.261,1776.718,3866.762,6525.703,-187500.016,-187500.016,-187500.016,-187500.016][-3014.714,1795.739,3874.921,6558.963,-187500.016,-187500.016,-187500.016,-187500.016][-3002.130,1710.109,3811.889,6516.114,-187500.016,-187500.016,-187500.016,-187500.016][-2943.456,1712.635,3830.038,6508.582,-187500.016,-187500.016,-187500.016,-187500.016][-2940.528,1752.645,3890.075,6567.009,-187500.016,-187500.016,-187500.016,-187500.016][-3003.672,1693.547,3876.999,6709.010,-187500.016,-187500.016,-187500.016,-187500.016][-2990.753,1780.339,3931.091,6554.000,-187500.016,-187500.016,-187500.016,-187500.016][-2983.488,1792.185,3883.973,6389.268,-187500.016,-187500.016,-187500.016,-187500.016][-3014.624,1690.418,3841.706,6466.404,-187500.016,-187500.016,-187500.016,-187500.016][-2969.630,1725.018,3888.265,6698.840,-187500.016,-187500.016,-187500.016,-187500.016][-2956.510,1740.173,3900.245,6673.158,-187500.016,-187500.016,-187500.016,-187500.016][-3047.303,1668.491,3832.631,6531.805,-187500.016,-187500.016,-187500.016,-187500.016][-2993.815,1719.095,3794.141,6460.414,-187500.016,-187500.016,-187500.016,-187500.016][-2962.031,1820.326,3841.326,6536.298,-187500.016,-187500.016,-187500.016,-18750', b'0.016][-3059.440,1799.584,3809.855,6504.983,-187500.016,-187500.016,-187500.016,-187500.016][-3022.716,1678.236,3815.756,6426.417,-187500.016,-187500.016,-187500.016,-187500.016][-2941.780,1712.993,3904.961,6524.809,-187500.016,-187500.016,-187500.016,-187500.016][-2951.190,1792.073,3888.667,6675.773,-187500.016,-187500.016,-187500.016,-187500.016][-2959.237,1751.326,3855.028,6728.792,-187500.016,-187500.016,-187500.016,-187500.016][-2931.856,1752.019,3853.597,6558.672,-187500.016,-187500.016,-187500.016,-187500.016][-2935.723,1769.789,3857.598,6454.826,-187500.016,-187500.016,-187500.016,-187500.016][-2995.000,1744.129,3883.347,6516.785,-187500.016,-187500.016,-187500.016,-187500.016][-3045.872,1730.941,3845.573,6570.116,-187500.016,-187500.016,-187500.016,-187500.016][-3020.190,1707.450,3775.366,6505.028,-187500.016,-187500.016,-187500.016,-187500.016][-3009.193,1732.349,3876.195,6490.365,-187500.016,-187500.016,-187500.016,-187500.016][-3013.127,1803.540,3894.680,6551.944,-187500.016,-187500.016,-187500.016,-187500.016][-3039.770,1759.283,3819.064,6629.594,-187500.016,-187500.016,-187500.016,-187500.016][-2985.679,1702.555,3810.726,6558.069,-187500.016,-187500.016,-187500.016,-187500.016][-3028.527,1671.240,3823.042,6439.716,-187500.016,-187500.016,-187500.016,-187500.016][-3068.783,1701.035,3820.315,6474.942,-187500.016,-187500.016,-187500.016,-187500.016][-3027.074,1794.689,3824.897,6573.692,-187500.016,-187500.016,-187500.016,-187500.016][-3000.364,1787.514,3813.453,6566.451,-187500.016,-187500.016,-187500.016,-187500.016][-3040.530,1641.646,3738.843,6511.465,-187500.016,-187500.016,-187500.016,-187500.016][-3016.703,1659.706,3855.810,6626.823,-187500.016,-187500.016,-187500.016,-187500.016][-2937.489,1759.216,3912.494,6616.206,-187500.016,-187500.016,-187500.016,-187500.016][-2981.208,1721.956,3879.279,6607.712,-187500.016,-187500.016,-187500.016,-187500.016][-2963.551,1798.153,3834.732,6451.741,-187500.016,-187500.016,-187500.016,-187500.016][-3036.708,1771.912,3796.287,6433.927,-187500.016,-187500.016,-187500.016,-187500.016][-3004.812,1732.193,3828.496,6630.980,-187500.016,-187500.016,-187500.016,-187500.016][-2958.767,1789.168,3884.800,6670.945,-187500.016,-187500.016,-187500.016,-187500.016][-3021.755,1713.798,3802.814,6517.188,-187500.016,-187500.016,-187500.016,-187500.016][-3046.744,1752.019,3802.210,6433.324,-187500.016,-187500.016,-187500.016,-187500.016][-3011.830,1779.914,3832.564,6606.125,-187500.016,-187500.016,-187500.016,-187500.016][-3046.029,1678.348,3768.370,6586.098,-187500.016,-187500.016,-187500.016,-187500.016][-3052.801,1646.742,3752.277,6433.815,-187500.016,-187500.016,-187500.016,-187500.016][-3069.006,1671.866,3813.073,6404.154,-187500.016,-187500.016,-187500.016,-187500.016][-3034.182,1706.645,3851.116,6581.784,-187500.016,-187500.016,-187500.016,-187500.016][-2989.725,1736.239,3869.355,6656.104,-187500.016,-187500.016,-187500.016,-187500.016][-2962.791,1765.274,3840.007,6506.660,-187500.016,-187500.016,-187500.016,-187500.016][-3043.011,1740.039,3785.245,6375.455,-187500.016,-187500.016,-187500.016,-187500.016][-3007.248,1738.340,3817.879,6543.294,-187500.016,-187500.016,-187500.016,-187500.016][-3026.135,1690.552,3800.445,6684.893,-187500.016,-187500.016,-187500.016,-187500.016][-3048.599,1697.101,3847.115,6663.971,-187500.016,-187500.016,-187500.016,-187500.016][-2965.763,1773.410,3883.236,6485.895,-187500.016,-187500.016,-187500.016,-187500.016][-2967.306,1789.794,3837.012,6541.037,-187500.016,-187500.016,-187500.016,-187500.016][-3003.672,1771.398,3837.705,6651.588,-187500.016,-187500.016,-187500.016,-187500.016][-3071.331,1754.031,3783.904,6531.984,-187500.016,-187500.016,-187500.016,-187500.016][-3025.085,1762.927,3752.724,6406.993,-187500.016,-187500.016,-187500.016,-187500.016][-3088.094,1664.490,3748.007,6431.290,-187500.016,-187500.016,-187500.016,-187500.016][-3049.761,1670.458,3844.612,6646.045,-187500.016,-187500.016,-187500.016,-187500.016][-3018.670,1740.351,3782.496,6573.067,-187500.016,-187500.016,-187500.016,-187500.016][-3000.521,1730.226,3787.704,6481.268,-187500.01']
