INDEX_b'0.4009284973144531'___FLEX_[]___EMG_[b'[-1884.967,6668.866,1382.500,7257.253,-187500.016,-187500.016,-187500.016,-187500.016][-1938.701,6553.621,1368.083,7235.438,-187500.016,-187500.016,-187500.016,-187500.016][-2003.253,6405.742,1353.555,7180.073,-187500.016,-187500.016,-187500.016,-187500.016][-1844.846,6574.855,1432.926,7333.897,-187500.016,-187500.016,-187500.016,-187500.016][-1842.790,6626.644,1554.653,7202.983,-187500.016,-187500.016,-187500.016,-187500.016][-1902.938,6533.080,1660.019,7051.930,-187500.016,-187500.016,-187500.016,-187500.016][-1979.828,6461.688,1657.248,6989.681,-187500.016,-187500.016,-187500.016,-187500.016][-2354.421,6152.921,1421.414,6793.566,-187500.016,-187500.016,-187500.016,-187500.016][-1835.235,6502.078,1267.031,7333.316,-187500.016,-187500.016,-187500.016,-187500.016][-1878.441,6479.212,1443.721,7240.713,-187500.016,-187500.016,-187500.016,-187500.016][-1896.747,6405.585,1306.236,7174.485,-187500.016,-187500.016,-187500.016,-187500.016][-1810.983,6492.958,1294.300,7304.036,-187500.016,-187500.016,-187500.016,-187500.016][-1908.906,6462.537,1503.110,7301.600,-187500.016,-187500.016,-187500.016,-187500.016][-1992.881,6440.945,1785.278,7139.169,-187500.016,-187500.016,-187500.016,-187500.016][-1912.572,6562.002,1564.220,7311.658,-187500.016,-187500.016,-187500.016,-187500.016][-1999.855,6517.992,1363.367,7333.093,-187500.016,-187500.016,-187500.016,-187500.016][-2003.521,6477.513,1495.958,7328.265,-187500.016,-187500.016,-187500.016,-187500.016][-1805.172,6602.236,1490.928,7466.242,-187500.016,-187500.016,-187500.016,-187500.016][-1750.566,6592.982,1516.700,7457.637,-187500.016,-187500.016,-187500.016,-187500.016][-1844.399,6580.599,1499.601,7419.750,-187500.016,-187500.016,-187500.016,-187500.016][-1948.312,6565.870,1477.316,7379.182,-187500.016,-187500.016,-187500.016,-187500.016][-1959.846,6624.632,1497.075,7329.114,-187500.016,-187500.016,-187500.016,-187500.016][-2020.016,6486.007,1431.428,7305.108,-187500.016,-187500.016,-187500.016,-187500.016][-1966.998,6501.429,1404.673,7391.274,-187500.016,-187500.016,-187500.016,-187500.016][-1868.583,6514.930,1505.189,7496.507,-187500.016,-187500.016,-187500.016,-187500.016][-1778.081,6507.330,1511.157,7503.771,-187500.016,-187500.016,-187500.016,-187500.016][-1817.867,6462.470,1578.838,7399.187,-187500.016,-187500.016,-187500.016,-187500.016][-2110.809,6287.412,1595.736,7148.021,-187500.016,-187500.016,-187500.016,-187500.016][-2137.676,6370.493,1332.633,7265.122,-187500.016,-187500.016,-187500.016,-187500.016][-1838.051,6611.333,1496.069,7525.430,-187500.016,-187500.016,-187500.016,-187500.016][-1844.823,6583.438,1512.855,7518.031,-187500.016,-187500.016,-187500.016,-187500.016][-1838.744,6576.464,1429.193,7515.349,-187500.016,-187500.016,-187500.016,-187500.016][-1884.610,6557.577,1456.395,7489.242,-187500.016,-187500.016,-187500.016,-187500.016][-1911.789,6519.512,1457.982,7470.131,-187500.016,-187500.016,-187500.016,-187500.016][-1903.787,6479.837,1445.465,7477.820,-187500.016,-187500.016,-187500.016,-187500.016][-1897.417,6474.809,1441.889,7503.056,-187500.016,-187500.016,-187500.016,-187500.016][-1920.127,6492.265,1482.345,7536.740,-187500.016,-187500.016,-187500.016,-187500.016][-1923.122,6484.442,1452.573,7447.467,-187500.016,-187500.016,-187500.016,-187500.016][-1959.220,6469.824,1459.055,7400.841,-187500.016,-187500.016,-187500.016,-187500.016][-1969.434,6443.762,1449.086,7407.636,-187500.016,-187500.016,-187500.016,-187500.016][-1910.739,6478.161,1508.653,7492.774,-187500.016,-187500.016,-187500.016,-187500.016][-1899.541,6498.457,1468.644,7470.601,-187500.016,-187500.016,-187500.016,-187500.016][-1926.989,6504.581,1429.819,7498.094,-187500.016,-187500.016,-187500.016,-187500.016][-1874.283,6506.861,1472.510,7562.333,-187500.016,-187500.016,-187500.016,-187500.016][-1887.538,6511.287,1473.002,7522.435,-187500.016,-187500.016,-187500.016,-187500.016][-1916.953,6481.938,1431.495,7515.528,-187500.016,-187500.016,-187500.016,-187500.016][-1913.779,6493.495,1402.550,7493.824,-187500.016,-187500.016,-187500.016,-187500.016][-1927.503,6464.102,1379.751,7491.679,-187500.016,-187', b'500.016,-187500.016,-187500.016][-1947.440,6467.544,1438.581,7546.619,-187500.016,-187500.016,-187500.016,-187500.016][-1960.293,6470.628,1567.930,7542.462,-187500.016,-187500.016,-187500.016,-187500.016][-1945.362,6485.269,1514.241,7409.514,-187500.016,-187500.016,-187500.016,-187500.016][-2025.090,6435.179,1392.648,7403.993,-187500.016,-187500.016,-187500.016,-187500.016][-1981.639,6438.151,1443.364,7497.624,-187500.016,-187500.016,-187500.016,-187500.016][-1935.661,6467.790,1503.065,7516.690,-187500.016,-187500.016,-187500.016,-187500.016][-1871.869,6505.073,1429.528,7565.954,-187500.016,-187500.016,-187500.016,-187500.016][-1926.430,6469.824,1470.700,7523.016,-187500.016,-187500.016,-187500.016,-187500.016][-1937.628,6448.634,1427.025,7538.997,-187500.016,-187500.016,-187500.016,-187500.016][-1909.889,6493.718,1458.094,7558.265,-187500.016,-187500.016,-187500.016,-187500.016][-1983.963,6475.099,1431.473,7532.515,-187500.016,-187500.016,-187500.016,-187500.016][-1995.899,6442.152,1407.601,7535.756,-187500.016,-187500.016,-187500.016,-187500.016][-1979.493,6456.994,1430.757,7551.045,-187500.016,-187500.016,-187500.016,-187500.016][-1951.598,6471.612,1437.351,7572.436,-187500.016,-187500.016,-187500.016,-187500.016][-1909.308,6475.725,1436.725,7601.851,-187500.016,-187500.016,-187500.016,-187500.016][-1973.368,6457.665,1458.764,7573.754,-187500.016,-187500.016,-187500.016,-187500.016][-1992.479,6443.091,1468.621,7546.038,-187500.016,-187500.016,-187500.016,-187500.016][-1985.640,6457.776,1408.339,7515.282,-187500.016,-187500.016,-187500.016,-187500.016][-1986.377,6489.404,1463.324,7537.813,-187500.016,-187500.016,-187500.016,-187500.016][-1998.045,6466.114,1433.484,7524.133,-187500.016,-187500.016,-187500.016,-187500.016][-2007.567,6451.250,1434.513,7539.824,-187500.016,-187500.016,-187500.016,-187500.016][-1987.405,6463.119,1455.859,7528.157,-187500.016,-187500.016,-187500.016,-187500.016][-1925.334,6479.502,1482.547,7547.513,-187500.016,-187500.016,-187500.016,-187500.016][-2023.101,6416.671,1499.064,7467.472,-187500.016,-187500.016,-187500.016,-187500.016][-2032.422,6468.460,1371.078,7500.262,-187500.016,-187500.016,-187500.016,-187500.016][-1954.414,6514.013,1366.496,7590.898,-187500.016,-187500.016,-187500.016,-187500.016][-1933.336,6471.031,1433.663,7596.687,-187500.016,-187500.016,-187500.016,-187500.016][-1939.438,6461.844,1440.145,7594.139,-187500.016,-187500.016,-187500.016,-187500.016][-1958.102,6446.556,1427.025,7591.300,-187500.016,-187500.016,-187500.016,-187500.016][-1950.324,6463.632,1421.526,7585.489,-187500.016,-187500.016,-187500.016,-187500.016][-2012.305,6448.344,1412.898,7568.390,-187500.016,-187500.016,-187500.016,-187500.016][-2012.350,6458.447,1431.272,7555.359,-187500.016,-187500.016,-187500.016,-187500.016][-2018.340,6454.826,1423.426,7552.341,-187500.016,-187500.016,-187500.016,-187500.016][-1995.921,6456.815,1411.937,7559.114,-187500.016,-187500.016,-187500.016,-187500.016][-1988.277,6456.927,1415.245,7571.586,-187500.016,-187500.016,-187500.016,-187500.016][-1994.826,6450.445,1420.587,7530.526,-187500.016,-187500.016,-187500.016,-187500.016][-2009.668,6450.132,1450.114,7473.954,-187500.016,-187500.016,-187500.016,-187500.016][-2060.987,6433.637,1385.830,7463.001,-187500.016,-187500.016,-187500.016,-187500.016][-2057.299,6444.879,1457.423,7475.831,-187500.016,-187500.016,-187500.016,-187500.016][-2066.799,6430.552,1460.307,7431.508,-187500.016,-187500.016,-187500.016,-187500.016][-2001.688,6456.212,1413.055,7485.398,-187500.016,-187500.016,-187500.016,-187500.016][-1976.788,6487.661,1387.887,7511.661,-187500.016,-187500.016,-187500.016,-187500.016][-2050.906,6456.458,1441.889,7440.426,-187500.016,-187500.016,-187500.016,-187500.016][-2070.889,6422.908,1404.941,7401.244,-187500.016,-187500.016,-187500.016,-187500.016][-2037.406,6451.786,1329.437,7422.031,-187500.016,-187500.016,-187500.016,-187500.016][-2004.996,6471.009,1390.122,7468.634,-187500.016,-187500.016,-187500.016,-187500.016][-2019.055,6461.666,1380.533,7463.471,-187500.016,-187500.016,-187500.016,-187500.016][-1999.989,6461.174,14']
INDEX_b'0.8009705543518066'___FLEX_[]___EMG_[b'08.763,7458.754,-187500.016,-187500.016,-187500.016,-187500.016][-2045.274,6445.170,1432.166,7444.136,-187500.016,-187500.016,-187500.016,-187500.016][-2071.850,6428.942,1426.354,7443.756,-187500.016,-187500.016,-187500.016,-187500.016][-2051.152,6459.006,1359.232,7414.855,-187500.016,-187500.016,-187500.016,-187500.016][-2052.583,6464.415,1398.437,7421.047,-187500.016,-187500.016,-187500.016,-187500.016][-2056.539,6451.451,1409.456,7423.483,-187500.016,-187500.016,-187500.016,-187500.016][-2067.872,6442.510,1393.229,7425.786,-187500.016,-187500.016,-187500.016,-187500.016][-2039.708,6448.634,1412.094,7426.277,-187500.016,-187500.016,-187500.016,-187500.016][-2045.006,6440.320,1477.495,7397.556,-187500.016,-187500.016,-187500.016,-187500.016][-2043.419,6429.211,1429.573,7364.363,-187500.016,-187500.016,-187500.016,-187500.016][-2109.915,6467.902,1355.164,7368.118,-187500.016,-187500.016,-187500.016,-187500.016][-2096.996,6458.894,1343.765,7355.758,-187500.016,-187500.016,-187500.016,-187500.016][-2032.690,6451.518,1402.371,7421.852,-187500.016,-187500.016,-187500.016,-187500.016][-2035.059,6449.909,1421.347,7396.013,-187500.016,-187500.016,-187500.016,-187500.016][-2034.612,6447.450,1434.177,7361.614,-187500.016,-187500.016,-187500.016,-187500.016][-2124.511,6430.775,1388.781,7329.718,-187500.016,-187500.016,-187500.016,-187500.016][-2122.723,6412.022,1433.484,7293.553,-187500.016,-187500.016,-187500.016,-187500.016][-2074.935,6451.406,1350.626,7346.705,-187500.016,-187500.016,-187500.016,-187500.016][-2029.516,6472.305,1371.950,7364.788,-187500.016,-187500.016,-187500.016,-187500.016][-2074.801,6427.624,1342.602,7332.221,-187500.016,-187500.016,-187500.016,-187500.016][-1996.391,6484.286,1381.047,7394.426,-187500.016,-187500.016,-187500.016,-187500.016][-2000.928,6510.102,1434.155,7444.606,-187500.016,-187500.016,-187500.016,-187500.016][-1980.521,6464.035,1435.183,7448.808,-187500.016,-187500.016,-187500.016,-187500.016][-2024.152,6442.845,1405.947,7369.862,-187500.016,-187500.016,-187500.016,-187500.016][-2131.552,6422.729,1398.236,7260.204,-187500.016,-187500.016,-187500.016,-187500.016][-2157.480,6418.907,1389.451,7213.042,-187500.016,-187500.016,-187500.016,-187500.016][-2137.743,6431.826,1355.276,7217.110,-187500.016,-187500.016,-187500.016,-187500.016][-2133.228,6415.375,1374.319,7257.075,-187500.016,-187500.016,-187500.016,-187500.016][-2098.695,6410.681,1408.584,7247.665,-187500.016,-187500.016,-187500.016,-187500.016][-2144.873,6420.226,1403.488,7224.106,-187500.016,-187500.016,-187500.016,-187500.016][-2116.084,6432.586,1413.189,7245.787,-187500.016,-187500.016,-187500.016,-187500.016][-2159.134,6428.674,1388.960,7243.284,-187500.016,-187500.016,-187500.016,-187500.016][-2117.247,6445.327,1337.774,7286.177,-187500.016,-187500.016,-187500.016,-187500.016][-2080.456,6451.451,1350.492,7277.526,-187500.016,-187500.016,-187500.016,-187500.016][-2090.603,6441.750,1372.688,7267.491,-187500.016,-187500.016,-187500.016,-187500.016][-2116.800,6435.380,1372.688,7262.551,-187500.016,-187500.016,-187500.016,-187500.016][-2084.859,6456.972,1436.904,7274.308,-187500.016,-187500.016,-187500.016,-187500.016][-2130.546,6426.551,1368.396,7255.957,-187500.016,-187500.016,-187500.016,-187500.016][-2127.864,6424.696,1379.349,7247.441,-187500.016,-187500.016,-187500.016,-187500.016][-2113.402,6446.265,1333.550,7260.584,-187500.016,-187500.016,-187500.016,-187500.016][-2127.484,6455.206,1355.566,7257.477,-187500.016,-187500.016,-187500.016,-187500.016][-2117.202,6412.559,1382.098,7286.467,-187500.016,-187500.016,-187500.016,-187500.016][-2127.305,6428.674,1385.897,7306.852,-187500.016,-187500.016,-187500.016,-187500.016][-2169.617,6414.816,1357.109,7265.613,-187500.016,-187500.016,-187500.016,-187500.016][-2148.807,6429.814,1381.405,7283.941,-187500.016,-187500.016,-187500.016,-187500.016][-2145.142,6443.650,1413.278,7262.976,-187500.016,-187500.016,-187500.016,-187500.016][-2151.713,6442.287,1391.128,7212.975,-187500.016,-187500.016,-187500.016,-187500.016][-2124.489,6490.745,1351.029,7231.191,-187500.016,-187500.016,-187500.016,-1', b'87500.016][-2133.385,6461.666,1353.242,7244.759,-187500.016,-187500.016,-187500.016,-187500.016][-2129.115,6443.650,1413.815,7265.367,-187500.016,-187500.016,-187500.016,-187500.016][-2144.583,6423.824,1415.514,7279.650,-187500.016,-187500.016,-187500.016,-187500.016][-2152.205,6414.079,1435.272,7270.843,-187500.016,-187500.016,-187500.016,-187500.016][-2143.264,6426.596,1402.751,7253.007,-187500.016,-187500.016,-187500.016,-187500.016][-2222.859,6349.594,1361.557,7243.731,-187500.016,-187500.016,-187500.016,-187500.016][-2209.626,6417.700,1271.703,7228.688,-187500.016,-187500.016,-187500.016,-187500.016][-2167.382,6488.041,1317.300,7242.211,-187500.016,-187500.016,-187500.016,-187500.016][-2112.284,6497.428,1375.973,7306.383,-187500.016,-187500.016,-187500.016,-187500.016][-2100.125,6483.771,1437.083,7320.263,-187500.016,-187500.016,-187500.016,-187500.016][-2131.529,6488.912,1401.276,7295.274,-187500.016,-187500.016,-187500.016,-187500.016][-2106.339,6552.212,1442.939,7346.705,-187500.016,-187500.016,-187500.016,-187500.016][-2164.923,6386.139,1316.317,7298.939,-187500.016,-187500.016,-187500.016,-187500.016][-2152.160,6438.822,1309.387,7243.149,-187500.016,-187500.016,-187500.016,-187500.016][-2061.211,6505.028,1423.627,7319.950,-187500.016,-187500.016,-187500.016,-187500.016][-2075.717,6472.305,1422.085,7333.965,-187500.016,-187500.016,-187500.016,-187500.016][-2164.297,6456.659,1353.979,7343.263,-187500.016,-187500.016,-187500.016,-187500.016][-2192.281,6412.514,1358.897,7380.032,-187500.016,-187500.016,-187500.016,-187500.016][-2231.866,6374.292,1404.472,7410.743,-187500.016,-187500.016,-187500.016,-187500.016][-2160.788,6478.653,1421.392,7244.714,-187500.016,-187500.016,-187500.016,-187500.016][-2148.561,6497.496,1396.448,7225.738,-187500.016,-187500.016,-187500.016,-187500.016][-2186.336,6434.508,1412.071,7266.686,-187500.016,-187500.016,-187500.016,-187500.016][-2197.355,6432.072,1432.881,7207.052,-187500.016,-187500.016,-187500.016,-187500.016][-2118.699,6507.755,1500.048,7301.331,-187500.016,-187500.016,-187500.016,-187500.016][-2106.115,6529.481,1317.434,7320.017,-187500.016,-187500.016,-187500.016,-187500.016][-2147.064,6508.068,1344.368,7299.096,-187500.016,-187500.016,-187500.016,-187500.016][-2173.014,6442.085,1370.900,7295.117,-187500.016,-187500.016,-187500.016,-187500.016][-2236.158,6367.945,1333.326,7297.084,-187500.016,-187500.016,-187500.016,-187500.016][-2167.918,6434.486,1375.258,7300.348,-187500.016,-187500.016,-187500.016,-187500.016][-2151.937,6528.296,1381.070,7193.573,-187500.016,-187500.016,-187500.016,-187500.016][-2114.296,6526.396,1393.721,7234.544,-187500.016,-187500.016,-187500.016,-187500.016][-2143.331,6461.755,1438.603,7267.647,-187500.016,-187500.016,-187500.016,-187500.016][-2182.894,6447.316,1499.690,7245.787,-187500.016,-187500.016,-187500.016,-187500.016][-2216.823,6409.050,1401.745,7257.120,-187500.016,-187500.016,-187500.016,-187500.016][-2157.234,6471.679,1359.008,7285.528,-187500.016,-187500.016,-187500.016,-187500.016][-2148.181,6486.275,1388.267,7302.091,-187500.016,-187500.016,-187500.016,-187500.016][-2173.752,6493.539,1379.840,7255.667,-187500.016,-187500.016,-187500.016,-187500.016][-2141.006,6509.118,1397.364,7284.389,-187500.016,-187500.016,-187500.016,-187500.016][-2113.536,6509.364,1385.361,7305.377,-187500.016,-187500.016,-187500.016,-187500.016][-2153.546,6484.375,1388.803,7288.412,-187500.016,-187500.016,-187500.016,-187500.016][-2194.919,6446.824,1365.982,7276.454,-187500.016,-187500.016,-187500.016,-187500.016][-2214.074,6427.758,1336.522,7291.407,-187500.016,-187500.016,-187500.016,-187500.016][-2211.280,6438.151,1338.735,7245.720,-187500.016,-187500.016,-187500.016,-187500.016][-2151.512,6502.994,1414.083,7262.395,-187500.016,-187500.016,-187500.016,-187500.016][-2144.337,6499.396,1429.416,7289.306,-187500.016,-187500.016,-187500.016,-187500.016][-2162.889,6475.680,1409.948,7284.098,-187500.016,-187500.016,-187500.016,-187500.016][-2163.090,6473.602,1476.400,7271.648,-187500.016,-187500.016,-187500.016,-187500.016][-2157.413,6481.581,1478.993,7270.083,-18750']
INDEX_b'1.2019054889678955'___FLEX_[b'3&b\x9a\xfe']___EMG_[b'0.016,-187500.016,-187500.016,-187500.016][-2147.578,6493.405,1347.408,7321.671,-187500.016,-187500.016,-187500.016,-187500.016][-2156.250,6496.378,1337.864,7340.044,-187500.016,-187500.016,-187500.016,-187500.016][-2170.734,6487.191,1352.325,7308.752,-187500.016,-187500.016,-187500.016,-187500.016][-2174.355,6479.547,1367.502,7303.701,-187500.016,-187500.016,-187500.016,-187500.016][-2119.973,6491.282,1400.180,7343.151,-187500.016,-187500.016,-187500.016,-187500.016][-2123.773,6500.379,1424.119,7345.543,-187500.016,-187500.016,-187500.016,-187500.016][-2159.760,6489.583,1397.029,7321.045,-187500.016,-187500.016,-187500.016,-187500.016][-2205.469,6463.632,1369.849,7251.286,-187500.016,-187500.016,-187500.016,-187500.016][-2241.209,6440.051,1354.650,7172.205,-187500.016,-187500.016,-187500.016,-187500.016][-2243.310,6430.686,1337.797,7215.009,-187500.016,-187500.016,-187500.016,-187500.016][-2223.574,6451.205,1363.970,7271.961,-187500.016,-187500.016,-187500.016,-187500.016][-2200.440,6485.604,1419.202,7247.955,-187500.016,-187500.016,-187500.016,-187500.016][-2217.472,6460.168,1434.334,7200.145,-187500.016,-187500.016,-187500.016,-187500.016][-2182.111,6466.494,1409.322,7241.294,-187500.016,-187500.016,-187500.016,-187500.016][-2197.154,6479.771,1465.269,7266.753,-187500.016,-187500.016,-187500.016,-187500.016][-2278.559,6427.959,1464.263,7178.263,-187500.016,-187500.016,-187500.016,-187500.016][-2197.422,6487.795,1335.338,7215.232,-187500.016,-187500.016,-187500.016,-187500.016][-2173.953,6509.141,1424.007,7236.645,-187500.016,-187500.016,-187500.016,-187500.016][-2182.469,6499.149,1332.700,7252.023,-187500.016,-187500.016,-187500.016,-187500.016][-2174.467,6507.554,1362.026,7261.478,-187500.016,-187500.016,-187500.016,-187500.016][-2166.599,6510.303,1396.939,7255.600,-187500.016,-187500.016,-187500.016,-187500.016][-2181.240,6497.384,1400.158,7251.666,-187500.016,-187500.016,-187500.016,-187500.016][-2172.165,6498.725,1382.366,7268.362,-187500.016,-187500.016,-187500.016,-187500.016][-2166.800,6495.193,1385.696,7290.535,-187500.016,-187500.016,-187500.016,-187500.016][-2193.779,6486.990,1401.879,7229.493,-187500.016,-187500.016,-187500.016,-187500.016][-2195.746,6494.456,1402.974,7202.469,-187500.016,-187500.016,-187500.016,-187500.016][-2211.303,6483.369,1386.836,7244.401,-187500.016,-187500.016,-187500.016,-187500.016][-2215.617,6475.211,1390.301,7311.702,-187500.016,-187500.016,-187500.016,-187500.016][-2223.194,6460.615,1409.747,7321.425,-187500.016,-187500.016,-187500.016,-187500.016][-2209.045,6485.157,1455.300,7156.224,-187500.016,-187500.016,-187500.016,-187500.016][-2231.263,6464.817,1333.192,7155.888,-187500.016,-187500.016,-187500.016,-187500.016][-2158.709,6498.770,1364.932,7254.326,-187500.016,-187500.016,-187500.016,-187500.016][-2144.806,6530.554,1402.192,7260.025,-187500.016,-187500.016,-187500.016,-187500.016][-2171.673,6522.932,1406.171,7276.252,-187500.016,-187500.016,-187500.016,-187500.016][-2198.003,6516.651,1400.203,7287.853,-187500.016,-187500.016,-187500.016,-187500.016][-2221.227,6498.814,1387.552,7225.939,-187500.016,-187500.016,-187500.016,-187500.016][-2218.589,6498.188,1400.046,7204.257,-187500.016,-187500.016,-187500.016,-187500.016][-2204.642,6499.373,1411.937,7231.258,-187500.016,-187500.016,-187500.016,-187500.016][-2205.268,6488.443,1397.699,7261.835,-187500.016,-187500.016,-187500.016,-187500.016][-2219.081,6481.402,1384.355,7243.999,-187500.016,-187500.016,-187500.016,-187500.016][-2224.602,6477.826,1387.104,7220.194,-187500.016,-187500.016,-187500.016,-187500.016][-2233.297,6464.661,1374.945,7213.646,-187500.016,-187500.016,-187500.016,-187500.016][-2237.722,6458.357,1390.748,7217.110,-187500.016,-187500.016,-187500.016,-187500.016][-2209.582,6487.839,1431.249,7270.553,-187500.016,-187500.016,-187500.016,-187500.016][-2210.833,6486.499,1409.903,7290.625,-187500.016,-187500.016,-187500.016,-187500.016][-2193.846,6486.118,1405.142,7298.135,-187500.016,-187500.016,-187500.016,-187500.016][-2183.184,6489.874,1386.993,7304.125,-187500.016,-187500.016,-187500.016,-187500.016][-2219.126,6', b'471.590,1406.238,7279.248,-187500.016,-187500.016,-187500.016,-187500.016][-2220.132,6486.007,1383.193,7280.813,-187500.016,-187500.016,-187500.016,-187500.016][-2218.366,6472.640,1407.556,7275.135,-187500.016,-187500.016,-187500.016,-187500.016][-2195.567,6486.767,1379.527,7309.691,-187500.016,-187500.016,-187500.016,-187500.016][-2188.392,6498.680,1391.821,7340.268,-187500.016,-187500.016,-187500.016,-187500.016][-2165.347,6502.659,1394.391,7356.518,-187500.016,-187500.016,-187500.016,-187500.016][-2224.244,6468.796,1393.207,7344.224,-187500.016,-187500.016,-187500.016,-187500.016][-2284.795,6418.438,1428.813,7301.063,-187500.016,-187500.016,-187500.016,-187500.016][-2304.063,6392.107,1449.533,7306.472,-187500.016,-187500.016,-187500.016,-187500.016][-2191.566,6499.641,1355.745,7408.128,-187500.016,-187500.016,-187500.016,-187500.016][-2176.300,6515.288,1344.770,7390.560,-187500.016,-187500.016,-187500.016,-187500.016][-2214.969,6484.442,1352.415,7350.975,-187500.016,-187500.016,-187500.016,-187500.016][-2270.222,6432.184,1312.182,7354.886,-187500.016,-187500.016,-187500.016,-187500.016][-2228.625,6447.159,1339.674,7386.424,-187500.016,-187500.016,-187500.016,-187500.016][-2197.914,6472.104,1371.011,7383.541,-187500.016,-187500.016,-187500.016,-187500.016][-2202.340,6479.793,1413.144,7429.027,-187500.016,-187500.016,-187500.016,-187500.016][-2233.610,6474.719,1416.609,7411.458,-187500.016,-187500.016,-187500.016,-187500.016][-2236.292,6503.955,1413.502,7406.585,-187500.016,-187500.016,-187500.016,-187500.016][-2253.525,6488.733,1402.639,7420.756,-187500.016,-187500.016,-187500.016,-187500.016][-2210.632,6515.108,1422.487,7506.855,-187500.016,-187500.016,-187500.016,-187500.016][-2266.266,6434.978,1406.528,7461.370,-187500.016,-187500.016,-187500.016,-187500.016][-2211.504,6495.104,1377.158,7492.260,-187500.016,-187500.016,-187500.016,-187500.016][-2168.276,6515.042,1356.103,7515.528,-187500.016,-187500.016,-187500.016,-187500.016][-2137.989,6528.341,1415.737,7540.271,-187500.016,-187500.016,-187500.016,-187500.016][-2169.214,6491.147,1412.876,7548.139,-187500.016,-187500.016,-187500.016,-187500.016][-2201.602,6480.731,1414.955,7562.735,-187500.016,-187500.016,-187500.016,-187500.016][-2220.556,6502.748,1388.803,7559.762,-187500.016,-187500.016,-187500.016,-187500.016][-2278.939,6479.681,1354.382,7518.277,-187500.016,-187500.016,-187500.016,-187500.016][-2227.240,6468.081,1444.817,7586.606,-187500.016,-187500.016,-187500.016,-187500.016][-2239.600,6443.136,1387.060,7547.268,-187500.016,-187500.016,-187500.016,-187500.016][-2273.217,6442.756,1390.033,7499.770,-187500.016,-187500.016,-187500.016,-187500.016][-2264.545,6462.090,1452.662,7485.733,-187500.016,-187500.016,-187500.016,-187500.016][-2259.694,6472.082,1464.933,7443.019,-187500.016,-187500.016,-187500.016,-187500.016][-2276.257,6454.759,1403.824,7401.780,-187500.016,-187500.016,-187500.016,-187500.016][-2248.675,6464.594,1403.287,7421.248,-187500.016,-187500.016,-187500.016,-187500.016][-2191.812,6483.525,1489.721,7488.527,-187500.016,-187500.016,-187500.016,-187500.016][-2216.667,6489.024,1337.148,7475.742,-187500.016,-187500.016,-187500.016,-187500.016][-2231.844,6496.534,1360.484,7509.806,-187500.016,-187500.016,-187500.016,-187500.016][-2207.883,6466.494,1350.537,7524.066,-187500.016,-187500.016,-187500.016,-187500.016][-2154.015,6502.211,1393.631,7554.308,-187500.016,-187500.016,-187500.016,-187500.016][-2213.538,6499.015,1436.547,7501.424,-187500.016,-187500.016,-187500.016,-187500.016][-2247.446,6448.344,1399.309,7453.413,-187500.016,-187500.016,-187500.016,-187500.016][-2263.248,6449.193,1385.406,7440.649,-187500.016,-187500.016,-187500.016,-187500.016][-2247.267,6458.961,1401.946,7426.412,-187500.016,-187500.016,-187500.016,-187500.016][-2232.202,6446.422,1400.516,7420.667,-187500.016,-187500.016,-187500.016,-187500.016][-2241.410,6446.734,1426.958,7507.750,-187500.016,-187500.016,-187500.016,-187500.016][-2225.541,6480.866,1443.051,7510.141,-187500.016,-187500.016,-187500.016,-187500.016][-2225.272,6483.548,1420.766,7495.657,-187500.016,-187500.016,-187']
INDEX_b'1.60288667678833'___FLEX_[b'276,359,347,349,357\n277,360,347,349,358\n276,359,347,349,358\n276,360,348,349,358\n276,360,347,349,356\n277,360,347,349,357\n277,360,347,349,358\n277,360,347,349,357\n276,359,347,349,357\n277,359,347,349,358\n277,360,348,349,358\n277,359,347,349,358\n277,360,347,349,358\n277,359,347,349,358\n277,359,347,350,357\n278,359,347,349,358\n277,360,347,349,358\n278,360,348,349,358\n277,359,347,349,358\n278,360,347,349,358\n278,360,347,349,358\n278,359,347,349,358\n278,360,347,349,358\n278,360,347,349,358\n277,360,347,349,358\n278,359,348,349,358\n278,360,347,349,358\n278,360,347,349,358\n277,360,347,349,358\n277,360,347,349,358\n276,360,347,349,358\n277,360,347,349,358\n276,360,347,348,358\n275,360,347,349,358\n275,360,347,349,358\n274,360,347,349,358\n274,360,347,349,358\n274,360,347,349,359\n273,360,347,348,358\n273,360,347,349,358\n272,361,347,349,358\n272,360,347,348,358\n272,360,347,349,358\n272,360,348,349,359\n271,360,348,349,359\n271,360,348,348,359\n270,360,347,349,358\n270,360,347,349,359\n269,360,347,349,358\n270,360,347,349,359\n']___EMG_[b'500.016,-187500.016][-2246.842,6471.299,1439.072,7528.760,-187500.016,-187500.016,-187500.016,-187500.016][-2277.330,6443.739,1410.641,7535.086,-187500.016,-187500.016,-187500.016,-187500.016][-2260.745,6435.425,1389.317,7540.383,-187500.016,-187500.016,-187500.016,-187500.016][-2300.799,6433.145,1512.721,7456.273,-187500.016,-187500.016,-187500.016,-187500.016][-2256.766,6438.286,1405.254,7456.005,-187500.016,-187500.016,-187500.016,-187500.016][-2196.238,6507.911,1381.651,7557.974,-187500.016,-187500.016,-187500.016,-187500.016][-2234.258,6462.537,1368.798,7502.608,-187500.016,-187500.016,-187500.016,-187500.016][-2245.322,6438.286,1343.407,7481.665,-187500.016,-187500.016,-187500.016,-187500.016][-2194.583,6471.076,1388.848,7522.278,-187500.016,-187500.016,-187500.016,-187500.016][-2181.463,6482.296,1418.375,7515.505,-187500.016,-187500.016,-187500.016,-187500.016][-2228.961,6450.780,1405.455,7484.973,-187500.016,-187500.016,-187500.016,-187500.016][-2252.363,6457.396,1400.605,7475.787,-187500.016,-187500.016,-187500.016,-187500.016][-2243.310,6451.920,1397.230,7560.165,-187500.016,-187500.016,-187500.016,-187500.016][-2261.549,6444.701,1428.478,7484.325,-187500.016,-187500.016,-187500.016,-187500.016][-2271.474,6434.888,1407.333,7373.930,-187500.016,-187500.016,-187500.016,-187500.016][-2267.942,6435.112,1383.059,7399.120,-187500.016,-187500.016,-187500.016,-187500.016][-2249.390,6451.339,1403.377,7397.153,-187500.016,-187500.016,-187500.016,-187500.016][-2223.820,6474.160,1447.745,7437.923,-187500.016,-187500.016,-187500.016,-187500.016][-2214.141,6470.562,1472.846,7455.670,-187500.016,-187500.016,-187500.016,-187500.016][-2224.825,6445.707,1459.368,7455.469,-187500.016,-187500.016,-187500.016,-187500.016][-2280.079,6414.124,1352.348,7410.095,-187500.016,-187500.016,-187500.016,-187500.016][-2261.840,6416.023,1380.175,7392.750,-187500.016,-187500.016,-187500.016,-187500.016][-2234.303,6453.038,1373.336,7409.313,-187500.016,-187500.016,-187500.016,-187500.016][-2288.953,6434.754,1385.428,7399.344,-187500.016,-187500.016,-187500.016,-187500.016][-2248.183,6459.498,1448.862,7435.732,-187500.016,-187500.016,-187500.016,-187500.016][-2241.723,6460.503,1401.186,7415.616,-187500.016,-187500.016,-187500.016,-187500.016][-2250.061,6459.967,1415.603,7401.802,-187500.016,-187500.016,-187500.016,-187500.016][-2249.927,6456.815,1400.627,7399.724,-187500.016,-187500.016,-187500.016,-187500.016][-2262.108,6448.657,1407.176,7405.602,-187500.016,-187500.016,-187500.016,-187500.016][-2257.951,6434.128,1419.984,7414.766,-187500.016,-187500.016,-187500.016,-187500.016][-2255.783,6446.354,1403.421,7345.431,-187500.016,-187500.016,-187500.016,-187500.016][-2243.042,6458.827,1398.169,7343.643,-187500.016,-187500.016,-187500.016,-187500.016][-2250.418,6454.558,1398.057,7365.905,-187500.016,-187500.016,-187500.016,-187500.016][-2259.180,6445.572,1407.065,7352.807,-187500.016,-187500.016,-187500.016,-187500.016][-2262.868,6425.836,1391.105,7319.660,-187500.016,-187500.016,-187500.016,-187500.016][-2235.443,6455.832,1506.776,7316.262,-187500.016,-187500.016,-187500.016,-187500.016][-2233.453,6449.059,1450.293,7292.547,-187500.016,-187500.016,-187500.016,-187500.016][-2316.333,6408.714,1350.716,7271.492,-187500.016,-187500.016,-187500.016,-187500.016][-2368.100,6343.201,1420.990,7244.513,-187500.016,-187500.016,-187500.016,-187500.016][-2284.102,6430.440,1320.005,7332.020,-187500.016,-187500.016,-187500.016,-187500.016][-2199.233,6519.579,1394.190,7394.091,-187500.016,-187500.016,-187500.016,-187500.016][-2256.431,6463.431,1456.015,7309.624,-187500.016,-187500.016,-187500.016,-187500.016][-2192.482,6509.923,1414.932,7391.118,-187500.016,-187500.016,-187500.016,-187500.016][-2207.212,6474.294,1379.460,7372.700,-187500.016,-187500.016,-187500.016,-187500.016][-2269.305,6455.139,1389.966,7356.272,-187500.016,-187500.016,-187500.016,-187500.016][-2290.182,6446.601,1396.939,7343.710,-187500.016,-187500.016,-187500.016,-187500.016][-2240.136,6471.567,1442.045,7371.136,-187500.016,-187500.016,-187500.016,-187500.016][-2257.280,6460.056,1422.621,7358.', b'149,-187500.016,-187500.016,-187500.016,-187500.016][-2284.058,6426.015,1391.687,7353.232,-187500.016,-187500.016,-187500.016,-187500.016][-2275.162,6422.081,1396.045,7356.339,-187500.016,-187500.016,-187500.016,-187500.016][-2274.379,6422.863,1401.812,7345.208,-187500.016,-187500.016,-187500.016,-187500.016][-2271.228,6422.572,1404.561,7346.661,-187500.016,-187500.016,-187500.016,-187500.016][-2319.865,6389.827,1359.925,7306.070,-187500.016,-187500.016,-187500.016,-187500.016][-2289.713,6423.399,1412.161,7342.749,-187500.016,-187500.016,-187500.016,-187500.016][-2267.964,6424.852,1462.050,7369.146,-187500.016,-187500.016,-187500.016,-187500.016][-2277.017,6400.377,1430.489,7305.533,-187500.016,-187500.016,-187500.016,-187500.016][-2344.251,6355.517,1416.765,7234.388,-187500.016,-187500.016,-187500.016,-187500.016][-2246.820,6464.102,1417.391,7326.745,-187500.016,-187500.016,-187500.016,-187500.016][-2267.048,6455.117,1371.749,7242.144,-187500.016,-187500.016,-187500.016,-187500.016][-2207.726,6498.121,1384.489,7300.393,-187500.016,-187500.016,-187500.016,-187500.016][-2215.974,6479.681,1394.883,7300.057,-187500.016,-187500.016,-187500.016,-187500.016][-2245.948,6464.191,1431.808,7278.845,-187500.016,-187500.016,-187500.016,-187500.016][-2263.472,6445.550,1464.777,7254.527,-187500.016,-187500.016,-187500.016,-187500.016][-2246.931,6432.608,1398.772,7252.113,-187500.016,-187500.016,-187500.016,-187500.016][-2275.050,6428.048,1450.025,7237.629,-187500.016,-187500.016,-187500.016,-187500.016][-2230.123,6473.266,1374.252,7297.464,-187500.016,-187500.016,-187500.016,-187500.016][-2248.027,6464.258,1427.896,7262.663,-187500.016,-187500.016,-187500.016,-187500.016][-2236.717,6460.347,1409.792,7254.057,-187500.016,-187500.016,-187500.016,-187500.016][-2259.135,6431.669,1394.369,7249.967,-187500.016,-187500.016,-187500.016,-187500.016][-2268.233,6438.666,1404.114,7225.894,-187500.016,-187500.016,-187500.016,-187500.016][-2262.376,6454.088,1415.335,7244.290,-187500.016,-187500.016,-187500.016,-187500.016][-2246.328,6451.965,1437.307,7252.381,-187500.016,-187500.016,-187500.016,-187500.016][-2250.351,6434.866,1408.272,7232.041,-187500.016,-187500.016,-187500.016,-187500.016][-2225.831,6455.497,1436.301,7217.981,-187500.016,-187500.016,-187500.016,-187500.016][-2253.391,6463.476,1450.248,7209.085,-187500.016,-187500.016,-187500.016,-187500.016][-2272.457,6449.171,1439.743,7202.670,-187500.016,-187500.016,-187500.016,-187500.016][-2255.827,6439.292,1414.597,7203.140,-187500.016,-187500.016,-187500.016,-187500.016][-2257.213,6450.378,1409.277,7194.311,-187500.016,-187500.016,-187500.016,-187500.016][-2258.688,6456.212,1417.615,7183.895,-187500.016,-187500.016,-187500.016,-187500.016][-2251.581,6455.921,1431.495,7192.635,-187500.016,-187500.016,-187500.016,-187500.016][-2251.804,6448.009,1436.748,7197.574,-187500.016,-187500.016,-187500.016,-187500.016][-2282.828,6429.010,1475.796,7175.334,-187500.016,-187500.016,-187500.016,-187500.016][-2318.122,6389.670,1431.204,7175.714,-187500.016,-187500.016,-187500.016,-187500.016][-2273.865,6433.994,1442.045,7208.840,-187500.016,-187500.016,-187500.016,-187500.016][-2226.591,6481.693,1430.489,7205.196,-187500.016,-187500.016,-187500.016,-187500.016][-2227.597,6460.705,1392.514,7229.806,-187500.016,-187500.016,-187500.016,-187500.016][-2245.858,6455.810,1441.598,7194.445,-187500.016,-187500.016,-187500.016,-187500.016][-2249.748,6454.916,1423.650,7186.085,-187500.016,-187500.016,-187500.016,-187500.016][-2224.468,6476.217,1417.525,7208.750,-187500.016,-187500.016,-187500.016,-187500.016][-2278.023,6434.598,1457.714,7183.225,-187500.016,-187500.016,-187500.016,-187500.016][-2351.426,6386.005,1519.427,7118.337,-187500.016,-187500.016,-187500.016,-187500.016][-2320.357,6386.921,1276.016,7195.451,-187500.016,-187500.016,-187500.016,-187500.016][-2196.171,6480.396,1413.323,7305.913,-187500.016,-187500.016,-187500.016,-187500.016][-2206.721,6472.037,1492.404,7257.857,-187500.016,-187500.016,-187500.016,-187500.016][-2241.791,6458.044,1416.139,7261.545,-187500.016,-187500.016,-187500.016,-187500.016][-']
INDEX_b'2.003788471221924'___FLEX_[b'269,360,347,349,359\n269,360,347,348,359\n269,360,347,349,359\n268,360,347,349,358\n268,360,348,349,360\n267,360,348,349,360\n266,360,347,349,359\n267,360,348,349,360\n265,360,347,349,360\n265,360,348,349,360\n264,360,348,349,360\n263,360,348,349,360\n263,360,348,349,360\n262,360,348,349,360\n261,361,348,349,360\n260,361,348,349,360\n260,361,348,349,360\n259,360,348,349,360\n259,360,347,349,360\n258,360,348,349,360\n257,360,349,349,360\n258,362,349,350,358\n257,361,348,349,359\n257,360,349,349,358\n256,360,348,349,358\n256,360,349,349,358\n255,360,349,349,357\n255,360,349,350,357\n254,360,349,349,356\n255,361,348,350,356\n253,360,349,350,355\n253,360,349,350,356\n252,360,349,350,355\n251,360,349,350,354\n250,360,348,349,354\n250,361,349,350,354\n250,361,349,350,353\n250,360,349,350,353\n248,360,349,350,353\n248,361,349,350,352\n247,360,349,350,352\n247,360,349,349,352\n246,361,350,350,351\n246,361,349,350,351\n245,361,349,350,350\n244,360,349,349,349\n243,360,349,349,349\n243,360,349,350,349\n241,360,350,350,348\n241,359,349,349,348\n', b'240,360,349,350,348\n240,360,350,350,346\n239,359,349,350,346\n238,360,350,350,345\n238,359,349,350,345\n237,359,348,350,343\n237,359,350,350,344\n236,359,350,350,344\n235,359,349,350,343\n234,359,350,350,343\n234,359,350,349,342\n233,358,349,349,342\n232,358,349,350,342\n232,358,350,350,341\n231,358,349,350,341\n230,358,350,350,340\n229,358,349,350,340\n229,358,350,350,340\n228,357,350,349,340\n227,357,350,349,339\n227,357,350,349,339\n226,357,350,350,339\n225,356,350,349,338\n225,357,350,350,339\n224,356,351,349,338\n224,357,350,349,337\n224,356,350,349,337\n223,356,350,349,337\n222,354,350,349,337\n222,355,349,349,336\n222,355,350,349,336\n221,355,350,349,335\n221,355,350,349,335\n221,354,350,349,334\n220,354,350,349,334\n219,354,350,349,334\n219,354,350,349,333\n219,353,349,348,333\n218,353,350,349,333\n219,353,349,348,333\n218,352,349,347,332\n217,353,349,347,332\n218,353,349,347,331\n218,352,349,347,331\n216,352,349,347,331\n217,352,349,347,330\n216,352,349,347,330\n216,351,349,346,330\n216,351,349,346,330\n216,352,348,346,330\n', b'216,352,349,346,329\n215,350,348,346,329\n215,350,348,346,329\n215,351,348,345,329\n215,351,349,346,329\n215,350,348,346,329\n215,350,348,346,329\n216,350,348,346,329\n216,350,348,346,328\n215,350,347,346,328\n216,350,347,346,328\n216,349,347,346,328\n216,349,346,346,328\n215,349,346,346,327\n216,349,347,347,328\n217,348,346,346,328\n216,348,345,346,327\n216,348,345,346,328\n217,348,346,346,328\n217,349,345,346,327\n217,348,345,347,328\n218,348,345,346,327\n219,347,344,347,327\n219,348,344,347,327\n219,347,344,346,327\n220,347,344,346,327\n221,347,344,347,327\n221,347,344,347,327\n221,347,343,347,326\n223,346,343,347,327\n223,346,343,347,325\n224,346,343,348,326\n224,347,341,348,325\n225,346,342,348,325\n226,346,342,348,325\n227,345,343,349,324\n228,345,342,348,324\n230,345,342,349,325\n230,344,342,349,323\n233,345,342,349,324\n233,344,343,349,323\n235,344,342,349,323\n236,344,342,349,323\n237,344,342,349,322\n239,344,342,349,322\n240,344,341,350,321\n241,343,342,350,321\n243,344,341,350,321\n243,344,341,350,321\n246,344,341,350,321\n', b'247,344,341,350,320\n247,343,341,350,319\n249,343,340,350,319\n250,343,341,350,319\n251,343,341,351,318\n252,343,341,351,318\n253,343,340,351,318\n254,343,341,351,317\n255,343,341,351,316\n256,343,340,351,315\n257,343,341,351,315\n258,342,340,351,315\n259,343,340,352,314\n260,343,340,352,314\n261,342,341,351,313\n262,343,341,352,312\n263,342,340,352,311\n265,342,340,353,311\n265,342,340,352,311\n266,342,340,353,310\n266,342,338,353,310\n267,342,341,353,309\n269,342,340,352,308\n270,342,339,353,309\n270,342,340,353,309\n271,342,340,353,308\n272,343,340,353,307\n273,342,339,353,307\n274,342,340,353,307\n275,343,340,353,306\n275,342,339,353,306\n275,342,340,353,305\n277,342,339,353,305\n278,342,339,353,305\n279,342,339,353,304\n280,343,339,352,304\n281,343,339,353,304\n282,343,340,353,304\n283,342,339,353,303\n284,343,339,353,303\n286,343,338,353,303\n287,342,338,352,302\n288,342,337,353,302\n289,342,340,353,302\n290,343,341,353,301\n291,343,342,354,301\n291,342,343,353,301\n292,343,341,353,301\n293,343,342,353,300\n294,343,342,352,299\n', b'295,342,343,353,299\n295,343,343,352,300\n296,343,342,353,300\n297,343,343,353,299\n297,343,343,352,299\n299,344,343,353,299\n298,344,342,352,299\n299,344,342,352,300\n299,344,342,351,299\n300,345,343,352,299\n300,345,342,351,299\n300,344,343,351,298\n301,345,344,351,298\n301,345,343,351,298\n301,345,344,351,298\n301,345,343,351,298\n301,345,344,351,297\n301,345,344,351,298\n301,346,344,351,298\n300,344,344,351,298\n302,346,345,351,298\n302,346,345,351,297\n302,346,345,351,298\n303,345,345,351,297\n303,346,345,351,298\n303,346,345,351,297\n303,346,345,351,297\n303,346,345,351,297\n302,347,345,351,298\n303,346,346,351,297\n304,347,346,351,297\n304,347,346,351,297\n304,347,346,351,297\n303,347,344,351,298\n304,347,346,351,297\n304,348,347,351,297\n304,347,347,351,297\n304,348,345,351,297\n303,348,346,350,297\n305,349,347,350,297\n304,348,346,350,297\n304,349,346,350,296\n304,349,347,350,296\n305,349,347,349,296\n304,348,348,349,296\n305,349,347,349,296\n305,349,348,348,296\n306,349,348,348,295\n305,349,347,348,295\n305,349,347,348,295\n']___EMG_[b'2228.603,6490.187,1397.878,7260.919,-187500.016,-187500.016,-187500.016,-187500.016][-2238.616,6472.729,1439.318,7225.067,-187500.016,-187500.016,-187500.016,-187500.016][-2265.528,6457.396,1433.373,7217.333,-187500.016,-187500.016,-187500.016,-187500.016][-2271.988,6448.545,1423.001,7209.152,-187500.016,-187500.016,-187500.016,-187500.016][-2268.344,6451.294,1436.301,7213.042,-187500.016,-187500.016,-187500.016,-187500.016][-2257.973,6455.586,1456.261,7226.274,-187500.016,-187500.016,-187500.016,-187500.016][-2287.835,6427.535,1439.586,7216.260,-187500.016,-187500.016,-187500.016,-187500.016][-2301.134,6411.262,1423.001,7163.577,-187500.016,-187500.016,-187500.016,-187500.016][-2283.678,6437.727,1455.859,7188.365,-187500.016,-187500.016,-187500.016,-187500.016][-2347.872,6375.701,1452.953,7120.908,-187500.016,-187500.016,-187500.016,-187500.016][-2312.400,6399.863,1409.926,7142.656,-187500.016,-187500.016,-187500.016,-187500.016][-2196.640,6497.741,1372.174,7261.121,-187500.016,-187500.016,-187500.016,-187500.016][-2253.145,6472.596,1445.845,7233.717,-187500.016,-187500.016,-187500.016,-187500.016][-2291.545,6406.837,1454.875,7215.254,-187500.016,-187500.016,-187500.016,-187500.016][-2403.863,6321.140,1409.926,7044.890,-187500.016,-187500.016,-187500.016,-187500.016][-2268.970,6477.446,1392.156,7162.035,-187500.016,-187500.016,-187500.016,-187500.016][-2154.082,6598.548,1459.882,7267.223,-187500.016,-187500.016,-187500.016,-187500.016][-2281.755,6505.162,1439.810,7142.433,-187500.016,-187500.016,-187500.016,-187500.016][-2290.853,6416.850,1455.166,7142.500,-187500.016,-187500.016,-187500.016,-187500.016][-2251.581,6436.050,1392.692,7215.053,-187500.016,-187500.016,-187500.016,-187500.016][-2226.435,6466.181,1432.836,7227.280,-187500.016,-187500.016,-187500.016,-187500.016][-2252.206,6459.430,1406.931,7221.536,-187500.016,-187500.016,-187500.016,-187500.016][-2246.931,6451.741,1509.145,7212.259,-187500.016,-187500.016,-187500.016,-187500.016][-2282.627,6427.847,1493.275,7178.240,-187500.016,-187500.016,-187500.016,-187500.016][-2289.623,6434.732,1330.733,7155.195,-187500.016,-187500.016,-187500.016,-187500.016][-2301.514,6416.984,1377.493,7145.562,-187500.016,-187500.016,-187500.016,-187500.016][-2310.656,6412.849,1373.515,7127.949,-187500.016,-187500.016,-187500.016,-187500.016][-2361.596,6387.078,1332.544,7109.688,-187500.016,-187500.016,-187500.016,-187500.016][-2301.090,6419.130,1385.339,7195.898,-187500.016,-187500.016,-187500.016,-187500.016][-2239.287,6469.601,1524.612,7177.502,-187500.016,-187500.016,-187500.016,-187500.016][-2233.140,6486.901,1529.396,7208.728,-187500.016,-187500.016,-187500.016,-187500.016][-2268.300,6452.993,1554.698,7175.759,-187500.016,-187500.016,-187500.016,-187500.016][-2307.527,6440.454,1513.034,7121.310,-187500.016,-187500.016,-187500.016,-187500.016][-2271.742,6462.180,1473.472,7158.057,-187500.016,-187500.016,-187500.016,-187500.016][-2248.317,6472.395,1438.625,7183.135,-187500.016,-187500.016,-187500.016,-187500.016][-2242.461,6465.935,1480.579,7182.040,-187500.016,-187500.016,-187500.016,-187500.016][-2276.771,6451.563,1417.458,7166.505,-187500.016,-187500.016,-187500.016,-187500.016][-2311.528,6412.357,1378.566,7125.490,-187500.016,-187500.016,-187500.016,-187500.016][-2384.909,6366.983,1488.492,7069.991,-187500.016,-187500.016,-187500.016,-187500.016][-2272.457,6461.666,1432.121,7154.614,-187500.016,-187500.016,-187500.016,-187500.016][-2243.087,6488.912,1413.547,7180.028,-187500.016,-187500.016,-187500.016,-187500.016][-2283.611,6446.734,1404.382,7129.558,-187500.016,-187500.016,-187500.016,-187500.016][-2241.791,6465.331,1449.667,7186.443,-187500.016,-187500.016,-187500.016,-187500.016][-2274.715,6430.172,1461.290,7191.584,-187500.016,-187500.016,-187500.016,-187500.016][-2304.733,6423.667,1452.841,7139.885,-187500.016,-187500.016,-187500.016,-187500.016][-2247.893,6487.281,1477.115,7151.530,-187500.016,-187500.016,-187500.016,-187500.016][-2242.416,6480.352,1484.223,7181.101,-187500.016,-187500.016,-187500.016,-187500.016][-2276.346,6458.000,1472.130,7158.705,-187500.016,-18750', b'0.016,-187500.016,-187500.016][-2265.372,6442.801,1454.651,7176.944,-187500.016,-187500.016,-187500.016,-187500.016][-2279.699,6416.828,1460.150,7205.263,-187500.016,-187500.016,-187500.016,-187500.016][-2312.534,6422.460,1538.940,7105.507,-187500.016,-187500.016,-187500.016,-187500.016][-2304.778,6447.003,1430.199,7091.605,-187500.016,-187500.016,-187500.016,-187500.016][-2274.536,6466.494,1410.082,7138.007,-187500.016,-187500.016,-187500.016,-187500.016][-2271.518,6460.124,1421.236,7178.575,-187500.016,-187500.016,-187500.016,-187500.016][-2269.507,6453.775,1410.373,7170.618,-187500.016,-187500.016,-187500.016,-187500.016][-2311.729,6408.356,1388.669,7122.696,-187500.016,-187500.016,-187500.016,-187500.016][-2321.251,6404.646,1495.533,7082.575,-187500.016,-187500.016,-187500.016,-187500.016][-2295.792,6440.163,1468.152,7124.261,-187500.016,-187500.016,-187500.016,-187500.016][-2286.829,6440.387,1421.481,7125.758,-187500.016,-187500.016,-187500.016,-187500.016][-2285.645,6440.610,1410.574,7124.171,-187500.016,-187500.016,-187500.016,-187500.016][-2269.551,6444.164,1481.764,7170.886,-187500.016,-187500.016,-187500.016,-187500.016][-2292.529,6418.616,1468.510,7154.502,-187500.016,-187500.016,-187500.016,-187500.016][-2276.615,6425.188,1431.003,7129.893,-187500.016,-187500.016,-187500.016,-187500.016][-2261.415,6446.712,1497.969,7135.302,-187500.016,-187500.016,-187500.016,-187500.016][-2302.274,6423.333,1639.478,7120.237,-187500.016,-187500.016,-187500.016,-187500.016][-2317.697,6435.112,1443.766,7103.116,-187500.016,-187500.016,-187500.016,-187500.016][-2272.189,6458.179,1384.221,7149.697,-187500.016,-187500.016,-187500.016,-187500.016][-2272.770,6457.709,1440.525,7122.919,-187500.016,-187500.016,-187500.016,-187500.016][-2302.900,6405.317,1364.373,7117.153,-187500.016,-187500.016,-187500.016,-187500.016][-2245.367,6463.945,1479.104,7131.190,-187500.016,-187500.016,-187500.016,-187500.016][-2257.951,6455.586,1441.263,7104.792,-187500.016,-187500.016,-187500.016,-187500.016][-2287.053,6437.861,1453.824,7109.821,-187500.016,-187500.016,-187500.016,-187500.016][-2307.460,6436.855,1455.836,7093.885,-187500.016,-187500.016,-187500.016,-187500.016][-2245.277,6508.448,1468.800,7117.689,-187500.016,-187500.016,-187500.016,-187500.016][-2221.115,6554.448,1491.487,7130.854,-187500.016,-187500.016,-187500.016,-187500.016][-2254.084,6487.594,1491.063,7137.828,-187500.016,-187500.016,-187500.016,-187500.016][-2348.431,6350.063,1424.901,7115.208,-187500.016,-187500.016,-187500.016,-187500.016][-2304.107,6400.556,1455.099,7111.006,-187500.016,-187500.016,-187500.016,-187500.016][-2277.352,6423.958,1478.478,7110.045,-187500.016,-187500.016,-187500.016,-187500.016][-2340.607,6397.292,1472.846,7100.188,-187500.016,-187500.016,-187500.016,-187500.016][-2314.858,6399.215,1453.780,7149.809,-187500.016,-187500.016,-187500.016,-187500.016][-2290.428,6418.438,1494.728,7109.486,-187500.016,-187500.016,-187500.016,-187500.016][-2279.073,6448.679,1391.709,7113.487,-187500.016,-187500.016,-187500.016,-187500.016][-2273.709,6458.938,1517.013,7102.267,-187500.016,-187500.016,-187500.016,-187500.016][-2243.132,6468.595,1506.709,7150.859,-187500.016,-187500.016,-187500.016,-187500.016][-2260.655,6457.374,1476.467,7127.390,-187500.016,-187500.016,-187500.016,-187500.016][-2273.664,6456.882,1448.840,7111.587,-187500.016,-187500.016,-187500.016,-187500.016][-2266.556,6456.391,1455.724,7107.877,-187500.016,-187500.016,-187500.016,-187500.016][-2282.381,6420.985,1474.254,7114.917,-187500.016,-187500.016,-187500.016,-187500.016][-2295.971,6410.569,1475.349,7115.655,-187500.016,-187500.016,-187500.016,-187500.016][-2303.392,6406.435,1451.656,7117.846,-187500.016,-187500.016,-187500.016,-187500.016][-2271.094,6441.839,1486.391,7114.917,-187500.016,-187500.016,-187500.016,-187500.016][-2316.244,6438.710,1469.739,7098.154,-187500.016,-187500.016,-187500.016,-187500.016][-2326.101,6398.991,1445.554,7114.292,-187500.016,-187500.016,-187500.016,-187500.016][-2335.735,6388.709,1433.909,7109.598,-187500.016,-187500.016,-187500.016,-187500.016][-2319.105,6415.800,1464']
INDEX_b'2.4047152996063232'___FLEX_[b'305,349,348,347,295\n305,349,347,347,295\n305,349,347,346,294\n305,349,348,346,295\n305,349,348,344,294\n305,349,347,345,293\n305,349,347,344,293\n305,349,348,344,293\n306,349,348,343,293\n305,349,348,342,292\n305,349,348,342,292\n305,349,348,341,292\n305,349,348,341,291\n305,349,348,341,291\n305,349,349,340,291\n305,349,348,340,291\n305,349,348,339,291\n305,350,348,339,290\n305,349,348,338,290\n304,349,347,338,289\n304,349,347,337,289\n304,349,348,337,289\n303,348,348,336,288\n303,347,347,335,288\n301,347,347,335,287\n301,346,347,334,287\n300,346,347,333,287\n299,345,346,333,286\n298,344,346,332,285\n297,343,345,332,285\n295,342,345,331,285\n295,341,342,330,284\n293,340,337,329,282\n292,339,336,329,283\n289,339,336,329,282\n288,338,335,327,282\n287,337,335,326,281\n285,336,335,326,280\n284,335,334,325,280\n283,334,333,324,279\n281,334,333,323,279\n280,333,332,323,278\n279,332,331,322,278\n277,331,331,321,277\n277,330,331,321,277\n276,329,330,319,276\n274,329,329,320,277\n273,328,328,319,276\n272,326,328,318,276\n271,326,328,318,275\n', b'269,325,328,317,275\n269,324,327,317,275\n267,324,326,316,274\n266,322,327,316,274\n265,322,326,316,275\n264,321,325,315,274\n262,319,325,315,274\n261,319,325,315,274\n260,318,324,314,273\n259,318,325,314,273\n258,317,324,313,273\n257,316,324,313,274\n257,315,325,313,273\n256,315,325,313,273\n254,315,325,313,274\n254,314,325,313,273\n253,314,324,312,273\n251,313,324,312,273\n251,312,323,312,273\n250,312,323,312,273\n249,312,323,311,273\n249,311,323,311,274\n248,311,323,311,273\n247,311,322,311,273\n247,310,322,310,274\n247,310,322,310,273\n245,309,322,310,273\n246,309,321,310,273\n244,308,321,309,273\n245,309,321,310,274\n244,308,321,310,273\n244,308,321,310,273\n243,308,321,310,274\n243,308,321,310,274\n243,307,320,310,273\n243,308,320,310,274\n243,307,321,310,275\n243,307,319,311,275\n243,307,320,311,275\n243,308,320,311,276\n243,307,319,311,276\n244,308,319,311,276\n244,308,318,312,276\n245,308,319,312,277\n245,308,320,312,277\n246,309,320,312,278\n246,309,320,313,278\n247,309,321,313,279\n248,310,321,313,279\n249,311,322,314,279\n', b'249,312,322,314,279\n249,312,323,314,280\n250,313,323,315,280\n251,314,324,315,281\n251,315,324,316,282\n252,315,325,316,282\n253,316,325,317,282\n253,317,326,318,283\n254,318,326,318,284\n255,319,328,318,284\n256,319,328,318,284\n257,319,328,319,284\n257,321,328,318,285\n259,321,329,319,285\n259,322,329,320,286\n260,323,329,321,286\n260,323,330,321,287\n262,324,330,321,287\n264,324,331,322,288\n265,325,331,322,288\n267,326,332,322,289\n269,327,332,323,289\n269,328,332,323,289\n271,329,332,323,290\n272,328,333,323,291\n273,329,333,324,291\n274,329,333,324,291\n275,330,333,324,291\n276,331,333,325,291\n277,331,334,325,291\n277,332,334,325,292\n279,331,334,325,292\n279,333,334,325,292\n280,333,334,325,292\n281,333,334,325,292\n281,333,335,325,292\n281,333,335,325,292\n281,334,334,325,293\n282,334,335,325,292\n282,334,335,325,293\n282,335,336,325,292\n283,335,335,325,292\n283,335,336,325,291\n283,335,335,326,293\n282,335,336,326,292\n283,335,335,325,291\n283,334,336,326,292\n282,334,335,325,291\n283,335,336,325,291\n283,334,335,325,291\n', b'283,334,336,325,291\n282,334,336,324,291\n281,334,336,325,291\n281,334,335,325,291\n281,334,335,325,291\n281,333,335,325,291\n279,334,336,325,292\n279,333,335,325,291\n278,332,334,325,291\n277,332,335,325,292\n276,332,335,323,291\n276,331,335,324,292\n274,331,334,324,291\n273,330,335,323,291\n272,330,334,323,291\n271,329,333,322,291\n270,327,333,322,292\n269,327,332,322,292\n268,327,332,322,291\n267,326,332,321,290\n266,326,331,321,290\n265,325,331,321,291\n264,325,330,320,290\n264,324,330,320,290\n263,323,330,320,289\n262,323,328,319,289\n262,322,328,319,289\n261,322,327,318,289\n260,321,327,318,288\n260,320,326,317,288\n259,321,326,317,288\n259,320,325,317,288\n257,319,325,317,287\n257,319,324,316,288\n256,318,324,316,287\n256,318,323,316,287\n256,318,323,316,287\n255,317,323,315,287\n255,317,322,315,287\n255,317,322,316,287\n254,316,322,315,287\n254,317,322,315,287\n253,316,321,315,287\n253,316,321,314,287\n253,316,321,314,287\n252,316,321,314,287\n252,315,321,314,287\n252,316,321,315,287\n252,315,320,314,287\n251,316,321,315,287\n', b'251,316,321,314,287\n252,315,320,314,287\n251,315,320,314,287\n252,316,321,315,288\n252,316,321,315,287\n252,315,321,315,286\n253,315,321,314,287\n253,315,320,315,287\n253,316,321,315,287\n253,315,321,315,286\n253,316,321,315,287\n253,316,321,315,287\n253,317,321,315,288\n254,316,321,315,288\n254,316,321,316,287\n254,317,321,315,289\n255,317,321,316,288\n255,318,321,316,288\n255,318,320,316,288\n256,318,321,316,288\n255,318,321,316,289\n256,318,321,316,288\n256,318,322,316,288\n257,319,321,317,289\n257,319,322,317,289\n258,320,322,317,289\n258,320,323,316,289\n258,320,322,316,290\n259,320,323,317,289\n259,321,324,317,288\n259,321,323,317,290\n260,321,323,317,289\n259,322,323,316,289\n260,322,324,317,289\n260,322,324,317,289\n261,323,324,318,289\n261,322,324,318,289\n261,324,324,318,289\n261,324,324,318,289\n261,324,324,318,290\n261,325,324,319,290\n262,325,324,318,290\n263,326,324,319,289\n263,326,324,318,290\n263,326,324,319,290\n263,327,325,319,290\n263,327,325,318,290\n262,328,324,318,290\n263,328,324,318,290\n264,328,325,319,290\n']___EMG_[b'.687,7121.914,-187500.016,-187500.016,-187500.016,-187500.016][-2289.132,6441.348,1497.254,7182.420,-187500.016,-187500.016,-187500.016,-187500.016][-2280.638,6444.969,1509.458,7211.187,-187500.016,-187500.016,-187500.016,-187500.016][-2322.056,6432.430,1429.640,7126.920,-187500.016,-187500.016,-187500.016,-187500.016][-2324.335,6427.847,1403.757,7119.097,-187500.016,-187500.016,-187500.016,-187500.016][-2256.721,6465.935,1536.191,7201.419,-187500.016,-187500.016,-187500.016,-187500.016][-2246.931,6464.862,1541.399,7246.346,-187500.016,-187500.016,-187500.016,-187500.016][-2272.546,6446.086,1516.901,7223.681,-187500.016,-187500.016,-187500.016,-187500.016][-2280.973,6442.913,1490.370,7222.049,-187500.016,-187500.016,-187500.016,-187500.016][-2289.221,6436.363,1484.245,7220.642,-187500.016,-187500.016,-187500.016,-187500.016][-2289.444,6428.205,1488.872,7229.850,-187500.016,-187500.016,-187500.016,-187500.016][-2305.404,6420.270,1462.095,7239.551,-187500.016,-187500.016,-187500.016,-187500.016][-2304.264,6425.188,1456.060,7235.796,-187500.016,-187500.016,-187500.016,-187500.016][-2294.004,6439.627,1482.502,7232.220,-187500.016,-187500.016,-187500.016,-187500.016][-2308.421,6412.805,1475.819,7225.670,-187500.016,-187500.016,-187500.016,-187500.016][-2333.455,6395.706,1557.693,7231.772,-187500.016,-187500.016,-187500.016,-187500.016][-2350.755,6379.255,1489.677,7216.886,-187500.016,-187500.016,-187500.016,-187500.016][-2329.812,6410.704,1432.456,7211.857,-187500.016,-187500.016,-187500.016,-187500.016][-2327.554,6391.839,1397.431,7209.085,-187500.016,-187500.016,-187500.016,-187500.016][-2271.094,6447.428,1430.199,7265.457,-187500.016,-187500.016,-187500.016,-187500.016][-2274.424,6457.039,1469.851,7267.916,-187500.016,-187500.016,-187500.016,-187500.016][-2292.596,6449.864,1473.002,7249.050,-187500.016,-187500.016,-187500.016,-187500.016][-2291.054,6448.947,1481.608,7265.725,-187500.016,-187500.016,-187500.016,-187500.016][-2294.228,6437.548,1510.821,7260.427,-187500.016,-187500.016,-187500.016,-187500.016][-2306.901,6418.035,1525.819,7253.096,-187500.016,-187500.016,-187500.016,-187500.016][-2312.221,6426.596,1469.694,7226.520,-187500.016,-187500.016,-187500.016,-187500.016][-2325.229,6409.027,1434.267,7200.256,-187500.016,-187500.016,-187500.016,-187500.016][-2307.125,6424.808,1451.656,7217.557,-187500.016,-187500.016,-187500.016,-187500.016][-2328.158,6421.075,1471.102,7207.052,-187500.016,-187500.016,-187500.016,-187500.016][-2311.461,6427.445,1444.593,7240.535,-187500.016,-187500.016,-187500.016,-187500.016][-2302.520,6420.628,1432.546,7222.206,-187500.016,-187500.016,-187500.016,-187500.016][-2314.232,6417.208,1467.168,7216.015,-187500.016,-187500.016,-187500.016,-187500.016][-2302.431,6414.794,1455.121,7257.209,-187500.016,-187500.016,-187500.016,-187500.016][-2305.225,6412.872,1389.697,7304.796,-187500.016,-187500.016,-187500.016,-187500.016][-2298.385,6445.930,1489.408,7244.223,-187500.016,-187500.016,-187500.016,-187500.016][-2284.035,6438.174,1523.093,7229.470,-187500.016,-187500.016,-187500.016,-187500.016][-2288.170,6437.168,1508.206,7246.636,-187500.016,-187500.016,-187500.016,-187500.016][-2330.594,6406.971,1469.582,7154.369,-187500.016,-187500.016,-187500.016,-187500.016][-2373.733,6370.783,1458.854,7090.912,-187500.016,-187500.016,-187500.016,-187500.016][-2296.508,6443.226,1491.487,7167.668,-187500.016,-187500.016,-187500.016,-187500.016][-2290.204,6451.942,1472.063,7177.614,-187500.016,-187500.016,-187500.016,-187500.016][-2318.256,6417.812,1508.989,7172.786,-187500.016,-187500.016,-187500.016,-187500.016][-2348.744,6397.762,1527.250,7123.523,-187500.016,-187500.016,-187500.016,-187500.016][-2346.866,6410.637,1620.479,7117.935,-187500.016,-187500.016,-187500.016,-187500.016][-2370.022,6387.033,1514.353,7100.322,-187500.016,-187500.016,-187500.016,-187500.016][-2271.787,6467.030,1368.977,7193.015,-187500.016,-187500.016,-187500.016,-187500.016][-2226.815,6511.935,1476.511,7240.199,-187500.016,-187500.016,-187500.016,-187500.016][-2247.669,6467.455,1462.184,7232.309,-187500.016,-187500.016,-187500.016,-187', b'500.016][-2257.392,6449.171,1479.820,7224.821,-187500.016,-187500.016,-187500.016,-187500.016][-2313.227,6413.408,1467.213,7183.671,-187500.016,-187500.016,-187500.016,-187500.016][-2354.130,6394.253,1509.614,7181.593,-187500.016,-187500.016,-187500.016,-187500.016][-2347.559,6400.444,1560.085,7150.904,-187500.016,-187500.016,-187500.016,-187500.016][-2294.898,6432.698,1500.406,7135.750,-187500.016,-187500.016,-187500.016,-187500.016][-2314.769,6413.251,1441.822,7139.817,-187500.016,-187500.016,-187500.016,-187500.016][-2309.516,6422.528,1436.569,7150.725,-187500.016,-187500.016,-187500.016,-187500.016][-2341.144,6394.633,1559.548,7128.306,-187500.016,-187500.016,-187500.016,-187500.016][-2365.396,6370.560,1610.957,7109.553,-187500.016,-187500.016,-187500.016,-187500.016][-2284.996,6438.129,1430.489,7183.716,-187500.016,-187500.016,-187500.016,-187500.016][-2374.448,6374.449,1472.153,7107.251,-187500.016,-187500.016,-187500.016,-187500.016][-2267.674,6462.604,1467.906,7200.368,-187500.016,-187500.016,-187500.016,-187500.016][-2225.250,6509.275,1491.398,7209.443,-187500.016,-187500.016,-187500.016,-187500.016][-2279.006,6445.885,1514.934,7176.653,-187500.016,-187500.016,-187500.016,-187500.016][-2272.457,6446.601,1492.180,7173.859,-187500.016,-187500.016,-187500.016,-187500.016][-2268.858,6462.470,1425.550,7168.606,-187500.016,-187500.016,-187500.016,-187500.016][-2319.865,6417.432,1443.766,7148.132,-187500.016,-187500.016,-187500.016,-187500.016][-2296.597,6444.522,1486.078,7141.874,-187500.016,-187500.016,-187500.016,-187500.016][-2252.363,6470.383,1505.234,7171.244,-187500.016,-187500.016,-187500.016,-187500.016][-2262.913,6464.929,1486.346,7182.174,-187500.016,-187500.016,-187500.016,-187500.016][-2298.631,6427.042,1496.874,7191.115,-187500.016,-187500.016,-187500.016,-187500.016][-2315.283,6413.251,1481.831,7165.030,-187500.016,-187500.016,-187500.016,-187500.016][-2309.762,6448.657,1441.956,7116.303,-187500.016,-187500.016,-187500.016,-187500.016][-2288.148,6496.378,1475.640,7123.925,-187500.016,-187500.016,-187500.016,-187500.016][-2246.037,6484.509,1530.826,7139.639,-187500.016,-187500.016,-187500.016,-187500.016][-2278.112,6426.864,1532.056,7151.753,-187500.016,-187500.016,-187500.016,-187500.016][-2292.194,6420.359,1510.106,7149.563,-187500.016,-187500.016,-187500.016,-187500.016][-2303.951,6428.183,1488.067,7134.922,-187500.016,-187500.016,-187500.016,-187500.016][-2309.807,6417.722,1484.804,7132.084,-187500.016,-187500.016,-187500.016,-187500.016][-2284.616,6440.230,1529.105,7151.731,-187500.016,-187500.016,-187500.016,-187500.016][-2292.574,6440.968,1514.644,7125.893,-187500.016,-187500.016,-187500.016,-187500.016][-2292.641,6438.777,1500.607,7122.249,-187500.016,-187500.016,-187500.016,-187500.016][-2280.079,6452.345,1514.420,7128.485,-187500.016,-187500.016,-187500.016,-187500.016][-2280.861,6440.342,1520.075,7129.625,-187500.016,-187500.016,-187500.016,-187500.016][-2314.679,6412.604,1511.023,7100.188,-187500.016,-187500.016,-187500.016,-187500.016][-2320.312,6410.033,1482.994,7086.486,-187500.016,-187500.016,-187500.016,-187500.016][-2288.349,6439.895,1472.823,7149.719,-187500.016,-187500.016,-187500.016,-187500.016][-2325.699,6404.736,1500.540,7112.526,-187500.016,-187500.016,-187500.016,-187500.016][-2272.256,6460.257,1605.436,7125.825,-187500.016,-187500.016,-187500.016,-187500.016][-2237.745,6496.512,1544.550,7151.351,-187500.016,-187500.016,-187500.016,-187500.016][-2269.708,6480.530,1488.894,7138.789,-187500.016,-187500.016,-187500.016,-187500.016][-2302.028,6442.063,1492.091,7084.318,-187500.016,-187500.016,-187500.016,-187500.016][-2329.588,6425.411,1514.219,7034.183,-187500.016,-187500.016,-187500.016,-187500.016][-2314.635,6415.286,1460.016,7055.417,-187500.016,-187500.016,-187500.016,-187500.016][-2257.906,6457.329,1485.966,7114.202,-187500.016,-187500.016,-187500.016,-187500.016][-2337.143,6431.603,1697.146,7030.048,-187500.016,-187500.016,-187500.016,-187500.016][-2422.840,6359.451,1556.084,6927.319,-187500.016,-187500.016,-187500.016,-187500.016][-2292.216,6456.480,1467.146,7066.481,-187500.']
INDEX_b'2.805670976638794'___FLEX_[b'263,328,325,319,290\n264,329,325,319,291\n263,329,325,319,290\n263,329,325,319,291\n264,329,325,319,290\n264,329,326,319,291\n263,329,326,319,290\n264,329,326,319,292\n263,329,325,319,291\n264,329,326,320,291\n264,329,326,319,291\n264,329,326,319,290\n264,329,326,320,290\n263,329,326,319,291\n264,329,326,319,291\n264,329,326,320,290\n264,329,326,320,290\n264,328,326,320,290\n264,329,326,319,290\n264,329,326,320,290\n264,329,326,320,290\n264,329,326,320,290\n264,329,326,320,290\n263,329,326,320,290\n263,329,326,319,291\n264,329,326,320,291\n264,329,328,320,290\n264,329,326,320,291\n263,329,327,319,290\n264,329,326,320,291\n263,329,327,320,291\n263,329,326,320,291\n264,329,326,319,292\n263,328,326,320,291\n263,329,326,319,291\n263,329,326,319,291\n263,329,326,320,291\n262,329,327,320,291\n263,329,326,319,291\n264,329,326,320,290\n263,329,326,320,291\n263,328,326,319,291\n262,329,327,320,291\n263,328,326,320,289\n262,329,326,320,291\n263,328,326,320,291\n263,329,326,320,290\n262,328,326,320,290\n263,328,326,320,290\n262,329,326,320,290\n', b'262,328,327,320,290\n262,329,326,320,290\n260,328,326,320,290\n262,327,326,319,290\n262,328,326,320,290\n262,328,327,320,291\n262,328,327,320,291\n262,329,327,319,291\n262,328,327,320,291\n261,329,326,320,291\n261,328,327,320,291\n261,328,326,320,291\n261,328,326,320,291\n261,329,327,320,291\n261,329,326,320,290\n261,327,326,320,289\n261,329,327,320,291\n261,329,327,320,290\n261,328,327,320,290\n260,328,327,320,291\n260,328,327,320,290\n261,328,327,320,290\n261,329,327,320,291\n261,328,327,320,289\n261,327,327,320,290\n261,328,327,320,290\n261,327,326,320,290\n261,328,327,319,290\n261,328,327,320,289\n261,328,327,320,290\n261,327,327,320,289\n262,328,326,320,289\n261,329,327,319,290\n261,328,326,320,291\n261,328,327,320,291\n262,328,327,319,290\n261,328,327,320,291\n262,329,326,320,291\n261,328,326,320,291\n262,329,328,320,291\n261,328,327,320,292\n262,329,327,320,290\n262,328,327,320,290\n262,329,327,320,291\n262,329,327,320,291\n262,328,327,320,291\n261,329,327,320,291\n262,329,327,320,290\n261,328,326,320,291\n262,329,327,320,290\n', b'262,328,327,320,291\n262,329,327,320,291\n262,329,327,319,290\n263,329,327,320,290\n262,328,327,320,290\n263,328,327,320,290\n262,329,326,321,291\n263,328,327,320,291\n263,329,327,320,291\n263,329,327,320,292\n262,329,327,320,291\n263,329,327,320,291\n263,329,327,320,292\n263,329,326,321,291\n262,329,327,320,290\n263,330,327,320,291\n263,329,327,320,290\n262,330,327,320,292\n263,330,327,320,291\n262,329,327,321,291\n261,329,327,320,291\n263,329,327,320,291\n263,329,327,320,292\n263,329,327,320,291\n263,329,327,320,290\n263,329,327,320,291\n263,329,327,320,291\n263,329,327,320,292\n263,329,327,320,290\n263,329,326,320,291\n261,330,327,320,291\n263,329,327,320,292\n263,329,327,320,292\n263,329,327,320,291\n263,328,327,320,291\n263,329,327,321,291\n263,329,327,320,291\n263,329,326,320,291\n263,329,327,321,291\n263,329,327,320,291\n263,329,327,320,291\n263,329,327,320,292\n263,329,327,320,291\n263,329,327,321,291\n263,329,327,320,291\n264,330,327,320,292\n263,329,327,320,291\n264,330,327,320,292\n263,330,327,320,291\n264,329,328,320,291\n', b'263,330,328,320,291\n264,330,327,320,291\n263,330,326,320,291\n263,329,327,320,291\n262,330,327,319,292\n263,330,327,320,291\n261,330,327,320,291\n263,330,327,320,291\n263,329,327,320,291\n264,330,327,320,291\n263,329,327,320,291\n263,330,327,320,291\n263,329,327,320,291\n263,330,327,321,291\n264,330,327,320,292\n264,329,327,320,291\n264,329,327,320,291\n264,330,326,321,291\n264,330,327,320,291\n264,330,328,320,291\n264,330,327,320,291\n264,330,327,320,292\n264,329,327,321,290\n264,330,327,321,292\n264,330,326,320,291\n264,329,327,320,289\n264,330,327,321,291\n264,330,326,320,292\n263,330,327,320,291\n264,330,327,320,291\n264,330,327,320,292\n264,329,326,320,292\n264,330,327,321,292\n264,330,326,320,292\n264,330,326,320,292\n264,330,326,320,291\n264,330,326,320,291\n264,330,327,320,291\n264,330,327,320,291\n264,330,327,320,291\n264,330,326,321,291\n264,330,327,320,291\n265,330,327,320,291\n265,330,327,320,292\n263,329,326,320,291\n265,330,327,320,292\n264,330,328,320,291\n264,330,326,321,291\n265,330,327,321,291\n264,330,327,320,291\n']___EMG_[b'016,-187500.016,-187500.016,-187500.016][-2266.310,6472.193,1531.653,7091.448,-187500.016,-187500.016,-187500.016,-187500.016][-2257.548,6476.284,1451.925,7153.542,-187500.016,-187500.016,-187500.016,-187500.016][-2246.842,6458.291,1486.592,7177.324,-187500.016,-187500.016,-187500.016,-187500.016][-2310.656,6407.239,1531.899,7109.017,-187500.016,-187500.016,-187500.016,-187500.016][-2372.369,6358.915,1514.577,7042.610,-187500.016,-187500.016,-187500.016,-187500.016][-2319.351,6402.747,1497.455,7110.514,-187500.016,-187500.016,-187500.016,-187500.016][-2332.606,6387.368,1529.329,7095.918,-187500.016,-187500.016,-187500.016,-187500.016][-2276.726,6429.501,1538.068,7086.688,-187500.016,-187500.016,-187500.016,-187500.016][-2245.479,6484.330,1450.427,7138.074,-187500.016,-187500.016,-187500.016,-187500.016][-2267.875,6477.468,1464.509,7117.376,-187500.016,-187500.016,-187500.016,-187500.016][-2284.840,6453.396,1509.860,7109.978,-187500.016,-187500.016,-187500.016,-187500.016][-2291.411,6444.343,1507.692,7097.975,-187500.016,-187500.016,-187500.016,-187500.016][-2322.525,6413.900,1489.788,7086.531,-187500.016,-187500.016,-187500.016,-187500.016][-2313.137,6423.712,1513.682,7082.061,-187500.016,-187500.016,-187500.016,-187500.016][-2295.167,6433.167,1539.543,7094.287,-187500.016,-187500.016,-187500.016,-187500.016][-2266.176,6452.300,1506.820,7128.820,-187500.016,-187500.016,-187500.016,-187500.016][-2294.496,6446.846,1542.874,7118.226,-187500.016,-187500.016,-187500.016,-187500.016][-2293.267,6448.009,1536.101,7102.803,-187500.016,-187500.016,-187500.016,-187500.016][-2306.611,6421.589,1467.235,7101.373,-187500.016,-187500.016,-187500.016,-187500.016][-2277.062,6440.029,1494.527,7111.408,-187500.016,-187500.016,-187500.016,-187500.016][-2316.781,6412.738,1491.554,7100.166,-187500.016,-187500.016,-187500.016,-187500.016][-2362.982,6379.948,1539.543,7063.598,-187500.016,-187500.016,-187500.016,-187500.016][-2266.601,6474.093,1547.098,7129.021,-187500.016,-187500.016,-187500.016,-187500.016][-2268.121,6460.682,1510.665,7135.861,-187500.016,-187500.016,-187500.016,-187500.016][-2307.371,6412.559,1488.269,7116.236,-187500.016,-187500.016,-187500.016,-187500.016][-2302.274,6432.407,1447.678,7074.282,-187500.016,-187500.016,-187500.016,-187500.016][-2305.292,6436.498,1505.658,7098.646,-187500.016,-187500.016,-187500.016,-187500.016][-2328.761,6395.996,1478.881,7086.173,-187500.016,-187500.016,-187500.016,-187500.016][-2319.686,6404.848,1479.931,7108.279,-187500.016,-187500.016,-187500.016,-187500.016][-2323.017,6409.318,1470.365,7115.879,-187500.016,-187500.016,-187500.016,-187500.016][-2307.907,6418.169,1487.732,7120.349,-187500.016,-187500.016,-187500.016,-187500.016][-2299.681,6425.456,1511.134,7124.417,-187500.016,-187500.016,-187500.016,-187500.016][-2296.709,6440.543,1533.665,7135.325,-187500.016,-187500.016,-187500.016,-187500.016][-2307.952,6434.285,1510.777,7129.178,-187500.016,-187500.016,-187500.016,-187500.016][-2333.701,6389.693,1481.675,7105.038,-187500.016,-187500.016,-187500.016,-187500.016][-2354.734,6380.774,1482.792,7106.424,-187500.016,-187500.016,-187500.016,-187500.016][-2328.694,6400.511,1486.145,7126.406,-187500.016,-187500.016,-187500.016,-187500.016][-2304.375,6418.840,1494.147,7150.524,-187500.016,-187500.016,-187500.016,-187500.016][-2289.534,6425.299,1525.194,7142.120,-187500.016,-187500.016,-187500.016,-187500.016][-2286.159,6440.499,1529.016,7095.516,-187500.016,-187500.016,-187500.016,-187500.016][-2333.522,6409.988,1587.622,7092.387,-187500.016,-187500.016,-187500.016,-187500.016][-2390.698,6367.296,1564.957,7019.654,-187500.016,-187500.016,-187500.016,-187500.016][-2297.871,6428.652,1491.085,7086.263,-187500.016,-187500.016,-187500.016,-187500.016][-2268.344,6449.059,1514.733,7122.182,-187500.016,-187500.016,-187500.016,-187500.016][-2288.416,6432.675,1547.568,7118.650,-187500.016,-187500.016,-187500.016,-187500.016][-2310.500,6392.934,1478.925,7088.073,-187500.016,-187500.016,-187500.016,-187500.016][-2298.542,6442.421,1463.771,7051.863,-187500.016,-187500.016,-187500.016,-187500.016][-2256.140,646', b'9.846,1516.029,7095.092,-187500.016,-187500.016,-187500.016,-187500.016][-2287.388,6438.576,1505.368,7069.991,-187500.016,-187500.016,-187500.016,-187500.016][-2296.619,6433.905,1514.375,7077.523,-187500.016,-187500.016,-187500.016,-187500.016][-2309.248,6425.456,1553.267,7072.628,-187500.016,-187500.016,-187500.016,-187500.016][-2303.280,6423.980,1519.673,7046.030,-187500.016,-187500.016,-187500.016,-187500.016][-2274.290,6430.597,1508.407,7081.614,-187500.016,-187500.016,-187500.016,-187500.016][-2285.890,6421.924,1512.453,7079.289,-187500.016,-187500.016,-187500.016,-187500.016][-2284.348,6430.619,1512.386,7060.759,-187500.016,-187500.016,-187500.016,-187500.016][-2316.423,6415.151,1516.499,7044.197,-187500.016,-187500.016,-187500.016,-187500.016][-2304.442,6411.955,1620.077,7043.794,-187500.016,-187500.016,-187500.016,-187500.016][-2354.130,6377.824,1559.034,7021.420,-187500.016,-187500.016,-187500.016,-187500.016][-2334.103,6394.812,1472.153,7078.574,-187500.016,-187500.016,-187500.016,-187500.016][-2278.447,6449.417,1515.627,7069.074,-187500.016,-187500.016,-187500.016,-187500.016][-2271.205,6444.142,1506.865,7080.496,-187500.016,-187500.016,-187500.016,-187500.016][-2271.876,6434.553,1474.410,7135.750,-187500.016,-187500.016,-187500.016,-187500.016][-2288.796,6439.470,1516.856,7068.583,-187500.016,-187500.016,-187500.016,-187500.016][-2286.516,6443.628,1532.637,7044.867,-187500.016,-187500.016,-187500.016,-187500.016][-2280.817,6439.381,1537.509,7109.240,-187500.016,-187500.016,-187500.016,-187500.016][-2300.799,6419.555,1538.158,7084.139,-187500.016,-187500.016,-187500.016,-187500.016][-2315.372,6404.981,1532.793,7026.628,-187500.016,-187500.016,-187500.016,-187500.016][-2322.279,6406.211,1491.465,7052.624,-187500.016,-187500.016,-187500.016,-187500.016][-2325.118,6404.222,1481.809,7049.427,-187500.016,-187500.016,-187500.016,-187500.016][-2307.572,6414.079,1521.751,7052.154,-187500.016,-187500.016,-187500.016,-187500.016][-2338.507,6398.120,1601.502,7046.052,-187500.016,-187500.016,-187500.016,-187500.016][-2405.293,6328.002,1582.861,7007.115,-187500.016,-187500.016,-187500.016,-187500.016][-2257.437,6460.369,1486.749,7115.275,-187500.016,-187500.016,-187500.016,-187500.016][-2261.795,6438.554,1523.741,7127.368,-187500.016,-187500.016,-187500.016,-187500.016][-2302.476,6416.381,1502.618,7066.347,-187500.016,-187500.016,-187500.016,-187500.016][-2295.278,6427.087,1481.675,7055.730,-187500.016,-187500.016,-187500.016,-187500.016][-2309.829,6421.410,1507.580,7064.335,-187500.016,-187500.016,-187500.016,-187500.016][-2305.091,6410.547,1509.547,7055.708,-187500.016,-187500.016,-187500.016,-187500.016][-2294.742,6422.640,1522.735,7070.773,-187500.016,-187500.016,-187500.016,-187500.016][-2316.378,6406.435,1504.921,7068.426,-187500.016,-187500.016,-187500.016,-187500.016][-2308.756,6406.591,1515.068,7082.709,-187500.016,-187500.016,-187500.016,-187500.016][-2307.594,6408.446,1516.700,7097.998,-187500.016,-187500.016,-187500.016,-187500.016][-2321.050,6408.446,1522.824,7075.579,-187500.016,-187500.016,-187500.016,-187500.016][-2319.150,6414.481,1533.911,7074.707,-187500.016,-187500.016,-187500.016,-187500.016][-2341.122,6403.618,1549.378,7054.188,-187500.016,-187500.016,-187500.016,-187500.016][-2391.391,6360.010,1647.726,6993.950,-187500.016,-187500.016,-187500.016,-187500.016][-2375.029,6365.776,1558.006,7004.791,-187500.016,-187500.016,-187500.016,-187500.016][-2270.468,6440.878,1381.986,7115.029,-187500.016,-187500.016,-187500.016,-187500.016][-2283.611,6423.645,1475.640,7121.176,-187500.016,-187500.016,-187500.016,-187500.016][-2277.643,6428.183,1557.872,7137.381,-187500.016,-187500.016,-187500.016,-187500.016][-2285.913,6431.155,1535.386,7081.904,-187500.016,-187500.016,-187500.016,-187500.016][-2336.495,6387.368,1548.171,7023.320,-187500.016,-187500.016,-187500.016,-187500.016][-2363.160,6371.700,1535.878,7018.358,-187500.016,-187500.016,-187500.016,-187500.016][-2309.673,6404.713,1465.917,7060.044,-187500.016,-187500.016,-187500.016,-187500.016][-2271.071,6435.514,1518.667,7096.835,-187500.016,-187500.016,-18750']
INDEX_b'3.206578493118286'___FLEX_[b'264,330,327,321,291\n264,330,326,320,291\n265,330,327,320,291\n264,330,326,321,291\n265,330,326,320,291\n265,330,327,320,291\n265,330,327,320,291\n265,330,327,320,291\n264,330,327,321,291\n265,330,327,321,291\n264,331,327,320,291\n265,330,327,320,291\n264,331,327,320,291\n264,330,327,320,292\n264,330,326,320,291\n264,330,327,320,291\n264,330,327,320,292\n264,330,327,320,291\n264,330,327,320,290\n265,330,326,320,290\n265,330,326,321,291\n265,330,327,320,291\n265,331,326,320,291\n264,330,327,320,291\n265,330,326,320,290\n265,330,326,320,291\n264,330,326,319,290\n265,330,326,320,291\n265,330,325,320,291\n265,330,325,320,291\n265,330,326,320,291\n265,331,325,319,290\n265,330,325,320,291\n265,330,326,319,291\n265,330,325,319,291\n265,331,326,319,291\n265,331,326,320,291\n265,330,325,320,291\n265,331,326,320,291\n265,331,327,320,291\n265,330,327,320,290\n265,331,326,319,291\n265,331,326,320,291\n265,330,324,320,291\n265,330,325,320,291\n265,330,326,320,291\n265,330,326,320,291\n265,330,326,320,290\n265,330,325,320,290\n265,330,326,320,291\n', b'265,330,326,320,291\n266,330,326,320,290\n265,330,326,320,290\n265,330,325,320,291\n265,330,326,320,291\n265,330,326,320,290\n265,331,326,320,290\n265,330,326,320,290\n266,331,326,319,291\n266,330,325,320,291\n265,331,326,320,292\n265,331,326,319,291\n265,331,326,320,291\n266,330,326,320,291\n265,330,327,319,291\n266,331,325,319,291\n265,331,326,320,291\n265,330,326,319,291\n265,330,325,320,291\n266,331,326,320,292\n265,331,326,320,291\n266,331,326,319,291\n266,331,326,320,291\n265,330,326,319,291\n265,331,326,320,291\n265,330,326,320,290\n266,330,326,320,291\n265,330,326,320,291\n266,331,326,320,291\n266,330,326,320,290\n265,330,326,320,291\n266,330,326,320,291\n265,330,326,320,291\n266,331,326,320,291\n266,331,326,320,291\n266,331,326,320,291\n266,331,326,320,291\n266,331,326,320,291\n266,330,326,320,291\n266,331,326,319,291\n266,331,325,320,291\n266,331,326,320,291\n266,330,326,319,291\n266,331,326,320,292\n266,331,326,320,291\n265,331,326,320,291\n266,331,326,319,293\n266,331,326,320,291\n266,331,326,320,292\n266,331,326,320,292\n', b'266,331,326,319,291\n266,331,327,320,292\n266,331,326,320,292\n266,331,325,320,291\n266,331,326,320,290\n267,331,326,320,292\n265,331,326,320,291\n267,331,326,320,292\n266,331,326,319,291\n266,330,326,320,291\n266,330,326,320,291\n266,331,326,319,291\n267,331,327,320,291\n266,331,326,320,291\n266,331,326,320,292\n266,331,326,320,291\n266,330,326,320,291\n266,330,326,320,292\n266,331,326,320,291\n266,331,326,320,291\n266,331,326,319,292\n266,331,326,320,291\n266,331,326,320,291\n266,331,326,320,292\n266,331,326,320,292\n266,330,326,320,291\n267,331,326,320,292\n266,331,326,319,291\n266,331,325,320,291\n266,331,326,320,291\n266,331,326,320,292\n266,330,326,320,291\n266,331,326,320,292\n266,330,326,319,292\n266,331,327,320,292\n266,331,326,320,291\n266,331,326,320,292\n266,330,326,320,291\n267,331,327,320,291\n267,330,327,320,292\n266,330,327,320,291\n266,330,326,320,291\n265,331,327,320,291\n267,330,326,320,291\n267,330,326,320,292\n267,331,325,320,292\n267,331,326,320,292\n266,331,328,320,292\n266,331,328,320,293\n267,331,328,320,292\n', b'267,331,328,320,292\n267,330,327,320,292\n267,330,329,320,292\n266,331,327,320,292\n267,331,328,320,292\n266,331,328,320,292\n266,331,327,320,292\n266,331,328,320,292\n266,331,328,321,293\n266,331,328,321,293\n266,331,328,320,292\n266,330,328,320,292\n266,330,328,320,292\n266,331,328,320,291\n267,331,328,321,292\n266,331,328,320,292\n266,331,328,320,292\n267,331,328,321,292\n266,331,328,320,291\n266,331,328,320,292\n266,331,328,320,292\n266,331,328,320,292\n266,331,328,320,292\n267,331,328,321,293\n266,331,328,320,292\n266,331,328,321,292\n266,332,328,321,292\n267,331,328,321,292\n266,332,328,321,292\n267,333,328,321,293\n266,332,328,320,292\n266,332,328,321,292\n266,331,328,320,292\n266,332,328,320,293\n266,332,328,320,292\n266,332,328,321,293\n266,333,329,320,292\n267,333,328,320,293\n267,332,328,320,292\n266,332,329,321,293\n266,333,328,320,293\n267,332,328,320,293\n266,333,328,320,292\n267,332,329,320,292\n266,333,328,320,293\n267,333,329,320,292\n267,333,328,321,292\n266,333,328,321,293\n266,333,329,321,292\n267,333,329,321,293\n', b'267,333,328,321,292\n267,332,328,320,292\n267,333,329,320,293\n267,333,328,321,292\n266,333,328,320,292\n266,333,328,321,293\n267,333,329,321,292\n267,331,328,321,293\n267,333,328,320,293\n266,333,329,321,293\n267,333,328,321,292\n267,333,329,321,292\n267,334,328,321,293\n266,333,328,320,293\n267,333,328,321,292\n267,333,326,320,293\n266,333,328,321,293\n267,333,328,321,294\n265,334,328,320,292\n267,333,328,321,293\n267,333,328,321,293\n266,334,328,320,293\n266,333,329,320,293\n267,333,329,321,293\n267,333,328,321,292\n266,333,328,320,292\n266,333,329,320,293\n267,333,329,321,294\n267,333,329,321,292\n266,333,329,321,293\n267,333,328,320,293\n267,333,329,321,293\n267,333,328,321,292\n267,333,328,321,292\n267,334,329,321,292\n267,333,328,320,292\n267,333,329,321,292\n267,333,329,321,293\n267,333,328,321,293\n267,333,329,321,293\n267,333,329,322,293\n267,333,328,321,293\n267,334,328,321,293\n266,334,329,321,293\n267,333,329,321,293\n267,333,328,320,293\n267,333,329,321,293\n267,333,328,321,293\n267,334,329,320,293\n267,334,329,321,293\n']___EMG_[b'0.016,-187500.016][-2277.754,6420.740,1504.272,7092.410,-187500.016,-187500.016,-187500.016,-187500.016][-2325.453,6403.573,1493.253,7079.155,-187500.016,-187500.016,-187500.016,-187500.016][-2322.994,6399.192,1511.715,7078.819,-187500.016,-187500.016,-187500.016,-187500.016][-2304.554,6402.791,1544.684,7084.810,-187500.016,-187500.016,-187500.016,-187500.016][-2308.019,6411.531,1529.038,7091.046,-187500.016,-187500.016,-187500.016,-187500.016][-2318.435,6409.273,1526.535,7094.510,-187500.016,-187500.016,-187500.016,-187500.016][-2315.752,6412.268,1542.807,7097.774,-187500.016,-187500.016,-187500.016,-187500.016][-2325.274,6390.788,1561.448,7089.146,-187500.016,-187500.016,-187500.016,-187500.016][-2332.136,6381.803,1519.762,7078.060,-187500.016,-187500.016,-187500.016,-187500.016][-2290.674,6412.335,1513.325,7115.812,-187500.016,-187500.016,-187500.016,-187500.016][-2330.192,6400.399,1521.550,7076.584,-187500.016,-187500.016,-187500.016,-187500.016][-2362.065,6381.378,1534.134,7041.112,-187500.016,-187500.016,-187500.016,-187500.016][-2348.922,6373.801,1533.173,7065.341,-187500.016,-187500.016,-187500.016,-187500.016][-2325.118,6405.652,1572.132,7059.463,-187500.016,-187500.016,-187500.016,-187500.016][-2301.425,6437.257,1530.133,7077.881,-187500.016,-187500.016,-187500.016,-187500.016][-2311.640,6411.821,1495.823,7062.503,-187500.016,-187500.016,-187500.016,-187500.016][-2312.087,6403.283,1505.189,7058.569,-187500.016,-187500.016,-187500.016,-187500.016][-2282.381,6432.519,1514.398,7104.681,-187500.016,-187500.016,-187500.016,-187500.016][-2285.667,6432.430,1558.967,7096.880,-187500.016,-187500.016,-187500.016,-187500.016][-2298.162,6425.210,1605.772,7070.706,-187500.016,-187500.016,-187500.016,-187500.016][-2293.915,6423.221,1516.722,7074.729,-187500.016,-187500.016,-187500.016,-187500.016][-2302.498,6421.745,1519.494,7074.282,-187500.016,-187500.016,-187500.016,-187500.016][-2311.617,6416.694,1545.690,7064.403,-187500.016,-187500.016,-187500.016,-187500.016][-2312.936,6408.088,1549.043,7060.960,-187500.016,-187500.016,-187500.016,-187500.016][-2271.742,6434.776,1569.227,7086.889,-187500.016,-187500.016,-187500.016,-187500.016][-2281.219,6429.904,1520.410,7082.910,-187500.016,-187500.016,-187500.016,-187500.016][-2288.841,6424.517,1526.825,7077.143,-187500.016,-187500.016,-187500.016,-187500.016][-2310.142,6419.220,1536.101,7065.118,-187500.016,-187500.016,-187500.016,-187500.016][-2375.074,6376.528,1582.123,7007.294,-187500.016,-187500.016,-187500.016,-187500.016][-2334.684,6418.370,1567.327,7016.570,-187500.016,-187500.016,-187500.016,-187500.016][-2272.077,6455.049,1573.339,7121.399,-187500.016,-187500.016,-187500.016,-187500.016][-2274.581,6431.334,1585.119,7117.153,-187500.016,-187500.016,-187500.016,-187500.016][-2335.556,6374.159,1550.384,7002.108,-187500.016,-187500.016,-187500.016,-187500.016][-2296.396,6418.035,1625.039,7078.439,-187500.016,-187500.016,-187500.016,-187500.016][-2286.829,6423.802,1482.658,7064.515,-187500.016,-187500.016,-187500.016,-187500.016][-2272.837,6438.151,1522.064,7053.294,-187500.016,-187500.016,-187500.016,-187500.016][-2280.124,6424.092,1578.346,7081.591,-187500.016,-187500.016,-187500.016,-187500.016][-2304.957,6423.221,1557.671,7038.944,-187500.016,-187500.016,-187500.016,-187500.016][-2301.157,6429.345,1552.418,7036.530,-187500.016,-187500.016,-187500.016,-187500.016][-2291.479,6429.412,1535.587,7050.634,-187500.016,-187500.016,-187500.016,-187500.016][-2290.920,6426.461,1551.569,7053.383,-187500.016,-187500.016,-187500.016,-187500.016][-2288.349,6426.216,1570.501,7059.888,-187500.016,-187500.016,-187500.016,-187500.016][-2302.945,6416.001,1562.007,7063.330,-187500.016,-187500.016,-187500.016,-187500.016][-2292.037,6419.510,1569.249,7036.552,-187500.016,-187500.016,-187500.016,-187500.016][-2302.364,6423.623,1600.072,7034.384,-187500.016,-187500.016,-187500.016,-187500.016][-2298.944,6422.818,1574.367,7049.248,-187500.016,-187500.016,-187500.016,-187500.016][-2287.991,6417.252,1543.142,7058.971,-187500.016,-187500.016,-187500.016,-187500.016][-2287.321,6415.845,1572.982,7060.87', b'1,-187500.016,-187500.016,-187500.016,-187500.016][-2297.491,6424.696,1581.028,7039.145,-187500.016,-187500.016,-187500.016,-187500.016][-2298.899,6417.096,1563.236,7055.619,-187500.016,-187500.016,-187500.016,-187500.016][-2326.504,6401.606,1513.727,7032.954,-187500.016,-187500.016,-187500.016,-187500.016][-2324.782,6396.019,1573.004,7015.676,-187500.016,-187500.016,-187500.016,-187500.016][-2307.885,6404.289,1562.119,7045.649,-187500.016,-187500.016,-187500.016,-187500.016][-2296.440,6438.241,1596.630,7039.302,-187500.016,-187500.016,-187500.016,-187500.016][-2297.580,6427.713,1521.751,7039.212,-187500.016,-187500.016,-187500.016,-187500.016][-2262.935,6451.741,1569.383,7042.185,-187500.016,-187500.016,-187500.016,-187500.016][-2271.764,6427.132,1597.837,7027.656,-187500.016,-187500.016,-187500.016,-187500.016][-2278.582,6448.098,1579.039,7051.841,-187500.016,-187500.016,-187500.016,-187500.016][-2286.293,6444.164,1587.600,7063.754,-187500.016,-187500.016,-187500.016,-187500.016][-2273.016,6431.133,1617.752,7035.234,-187500.016,-187500.016,-187500.016,-187500.016][-2262.913,6445.840,1554.430,7038.877,-187500.016,-187500.016,-187500.016,-187500.016][-2288.640,6423.914,1575.105,7035.949,-187500.016,-187500.016,-187500.016,-187500.016][-2304.912,6421.298,1558.140,7022.247,-187500.016,-187500.016,-187500.016,-187500.016][-2305.001,6418.974,1542.896,7024.371,-187500.016,-187500.016,-187500.016,-187500.016][-2280.034,6441.236,1584.828,7048.265,-187500.016,-187500.016,-187500.016,-187500.016][-2303.101,6418.840,1562.566,7022.717,-187500.016,-187500.016,-187500.016,-187500.016][-2322.994,6393.113,1549.870,6993.056,-187500.016,-187500.016,-187500.016,-187500.016][-2262.242,6440.163,1569.897,7037.916,-187500.016,-187500.016,-187500.016,-187500.016][-2291.009,6414.168,1591.757,7059.105,-187500.016,-187500.016,-187500.016,-187500.016][-2321.206,6410.838,1561.515,7012.211,-187500.016,-187500.016,-187500.016,-187500.016][-2307.460,6432.608,1577.988,6991.603,-187500.016,-187500.016,-187500.016,-187500.016][-2304.129,6427.042,1600.586,7010.043,-187500.016,-187500.016,-187500.016,-187500.016][-2286.293,6433.681,1590.662,7024.885,-187500.016,-187500.016,-187500.016,-187500.016][-2286.248,6435.917,1567.953,7028.126,-187500.016,-187500.016,-187500.016,-187500.016][-2278.961,6438.331,1609.817,7030.495,-187500.016,-187500.016,-187500.016,-187500.016][-2233.587,6457.821,1589.634,7037.156,-187500.016,-187500.016,-187500.016,-187500.016][-2160.073,6477.893,1597.434,7044.979,-187500.016,-187500.016,-187500.016,-187500.016][-2264.813,6458.425,1542.807,7011.787,-187500.016,-187500.016,-187500.016,-187500.016][-2335.690,6416.604,1579.799,6998.800,-187500.016,-187500.016,-187500.016,-187500.016][-2333.947,6401.853,1616.366,7001.952,-187500.016,-187500.016,-187500.016,-187500.016][-2345.503,6384.530,1631.297,6977.499,-187500.016,-187500.016,-187500.016,-187500.016][-2305.225,6420.404,1613.237,7024.952,-187500.016,-187500.016,-187500.016,-187500.016][-2251.826,6479.972,1567.684,7075.646,-187500.016,-187500.016,-187500.016,-187500.016][-2276.212,6450.803,1596.116,7043.102,-187500.016,-187500.016,-187500.016,-187500.016][-2274.200,6440.767,1567.841,7048.041,-187500.016,-187500.016,-187500.016,-187500.016][-2287.679,6428.719,1577.340,7027.522,-187500.016,-187500.016,-187500.016,-187500.016][-2307.728,6423.891,1564.443,7006.400,-187500.016,-187500.016,-187500.016,-187500.016][-2288.304,6432.586,1556.598,7035.413,-187500.016,-187500.016,-187500.016,-187500.016][-2271.742,6433.458,1560.554,7022.560,-187500.016,-187500.016,-187500.016,-187500.016][-2266.601,6444.969,1593.880,7017.419,-187500.016,-187500.016,-187500.016,-187500.016][-2288.953,6430.664,1571.641,7004.902,-187500.016,-187500.016,-187500.016,-187500.016][-2315.462,6425.299,1561.895,7004.344,-187500.016,-187500.016,-187500.016,-187500.016][-2289.958,6415.800,1547.322,7015.899,-187500.016,-187500.016,-187500.016,-187500.016][-2292.730,6407.686,1564.734,7009.484,-187500.016,-187500.016,-187500.016,-187500.016][-2302.386,6436.185,1593.836,6997.794,-187500.016,-187500.016,-187500.016,-187500.016][-22', b'72.546,6442.421,1584.604,7008.590,-187500.016,-187500.016,-187500.016,-187500.016][-2290.338,6429.166,1610.980,6990.530,-187500.016,-187500.016,-187500.016,-187500.016][-2288.863,6428.786,1600.988,7002.198,-187500.016,-187500.016,-187500.016,-187500.016][-2280.817,6445.125,1593.322,7005.327,-187500.016,-187500.016,-187500.016,-187500.016][-2299.033,6435.201,1564.153,7008.032,-187500.016,-187500.016,-187500.016,-187500.016][-2302.476,6425.590,1614.645,6994.777,-187500.016,-187500.016,-187500.016,-187500.016][-2301.760,6419.443,1620.010,6972.828,-187500.016,-187500.016,-187500.016,-187500.016][-2300.911,6423.735,1581.229,6986.462,-187500.016,-187500.016,-187500.016,-187500.016][-2298.363,6429.032,1656.264,6986.328,-187500.016,-187500.016,-187500.016,-187500.016][-2302.476,6415.420,1556.911,6988.697,-187500.016,-187500.016,-187500.016,-187500.016][-2273.217,6431.312,1545.869,7014.625,-187500.016,-187500.016,-187500.016,-187500.016][-2283.879,6426.685,1577.340,7019.632,-187500.016,-187500.016,-187500.016,-187500.016][-2283.700,6428.697,1571.596,7024.393,-187500.016,-187500.016,-187500.016,-187500.016][-2272.971,6433.391,1565.784,6996.342,-187500.016,-187500.016,-187500.016,-187500.016][-2297.022,6425.992,1578.525,6997.012,-187500.016,-187500.016,-187500.016,-187500.016][-2302.095,6418.951,1590.170,7005.372,-187500.016,-187500.016,-187500.016,-187500.016][-2285.622,6433.569,1593.031,6984.897,-187500.016,-187500.016,-187500.016,-187500.016][-2261.527,6435.156,1606.152,7001.661,-187500.016,-187500.016,-187500.016,-187500.016][-2283.365,6428.942,1621.440,7006.802,-187500.016,-187500.016,-187500.016,-187500.016][-2308.958,6406.367,1596.049,6994.241,-187500.016,-187500.016,-187500.016,-187500.016][-2328.806,6407.887,1574.971,6945.849,-187500.016,-187500.016,-187500.016,-187500.016][-2301.760,6426.372,1570.791,6982.707,-187500.016,-187500.016,-187500.016,-187500.016][-2277.844,6440.096,1612.365,7005.618,-187500.016,-187500.016,-187500.016,-187500.016][-2290.540,6423.914,1616.210,6995.135,-187500.016,-187500.016,-187500.016,-187500.016][-2284.840,6424.763,1573.295,7002.108,-187500.016,-187500.016,-187500.016,-187500.016][-2301.827,6415.062,1575.396,6989.882,-187500.016,-187500.016,-187500.016,-187500.016][-2299.302,6417.990,1594.171,6972.850,-187500.016,-187500.016,-187500.016,-187500.016][-2287.902,6430.619,1578.726,6989.748,-187500.016,-187500.016,-187500.016,-187500.016][-2298.765,6424.204,1579.419,6987.133,-187500.016,-187500.016,-187500.016,-187500.016][-2295.658,6423.511,1576.781,6988.295,-187500.016,-187500.016,-187500.016,-187500.016][-2297.558,6415.129,1599.312,7028.260,-187500.016,-187500.016,-187500.016,-187500.016][-2295.859,6411.240,1613.908,7008.970,-187500.016,-187500.016,-187500.016,-187500.016][-2281.800,6431.692,1581.118,6989.636,-187500.016,-187500.016,-187500.016,-187500.016][-2302.364,6413.632,1575.530,6990.687,-187500.016,-187500.016,-187500.016,-187500.016][-2269.797,6438.777,1583.196,6986.507,-187500.016,-187500.016,-187500.016,-187500.016][-2274.424,6437.146,1610.778,6984.495,-187500.016,-187500.016,-187500.016,-187500.016][-2288.841,6423.444,1597.457,6981.209,-187500.016,-187500.016,-187500.016,-187500.016][-2288.684,6421.187,1592.271,6988.764,-187500.016,-187500.016,-187500.016,-187500.016][-2290.204,6423.846,1607.157,6979.846,-187500.016,-187500.016,-187500.016,-187500.016][-2303.861,6408.871,1645.960,6974.996,-187500.016,-187500.016,-187500.016,-187500.016][-2307.080,6394.476,1612.187,6977.275,-187500.016,-187500.016,-187500.016,-187500.016][-2321.787,6404.848,1569.875,6988.004,-187500.016,-187500.016,-187500.016,-187500.016][-2300.620,6417.812,1521.774,6969.117,-187500.016,-187500.016,-187500.016,-187500.016][-2292.417,6423.534,1602.709,6980.360,-187500.016,-187500.016,-187500.016,-187500.016][-2272.658,6445.729,1622.871,7001.594,-187500.016,-187500.016,-187500.016,-187500.016][-2287.723,6426.395,1589.231,6979.131,-187500.016,-187500.016,-187500.016,-187500.016][-2290.070,6415.353,1623.832,6986.216,-187500.016,-187500.016,-187500.016,-187500.016][-2267.450,6436.922,1620.211,6993.480,-187500.016,-187500.']
INDEX_b'3.6075260639190674'___FLEX_[b'267,334,328,321,293\n267,333,329,320,293\n267,334,329,320,293\n267,333,329,321,293\n266,333,328,320,293\n267,334,328,322,293\n267,333,329,321,293\n267,333,329,321,293\n267,334,329,321,292\n267,334,329,321,293\n267,334,329,321,293\n267,334,329,321,293\n267,333,329,321,293\n267,333,329,322,293\n267,334,329,321,293\n266,333,329,321,292\n267,334,329,321,294\n267,333,328,321,293\n267,333,329,321,293\n267,334,329,321,294\n267,333,329,321,294\n268,334,329,321,293\n267,334,329,321,293\n267,333,329,321,294\n267,334,329,320,293\n267,334,329,321,293\n267,333,329,321,293\n267,334,328,320,294\n267,334,329,321,293\n267,334,329,321,293\n267,333,329,321,294\n267,334,329,320,293\n267,334,329,321,293\n267,333,329,320,293\n267,334,329,321,293\n267,333,329,321,294\n267,335,329,321,293\n266,334,329,321,293\n267,333,329,321,293\n267,334,329,321,293\n266,334,329,320,293\n267,334,329,321,293\n267,334,329,321,293\n268,334,329,321,292\n267,334,329,321,293\n267,334,329,321,293\n267,334,329,321,293\n267,334,329,321,294\n267,334,328,321,293\n267,334,329,321,293\n', b'267,333,328,321,293\n267,334,329,321,293\n267,334,328,321,294\n267,334,329,321,293\n267,333,329,321,293\n267,333,329,321,293\n267,334,329,322,293\n267,334,329,321,293\n267,333,329,321,293\n267,334,329,321,294\n268,333,329,321,293\n267,334,330,321,293\n267,334,329,321,293\n267,334,329,321,294\n267,333,329,321,293\n266,334,329,321,293\n267,334,329,321,293\n268,334,329,321,294\n267,334,329,321,293\n267,334,330,321,293\n268,335,329,321,293\n267,334,329,321,293\n267,334,329,321,294\n267,334,329,321,293\n267,334,329,321,293\n267,334,329,320,293\n267,334,329,321,293\n268,335,329,321,293\n267,335,329,321,293\n268,334,329,321,294\n267,334,329,321,294\n267,334,329,321,293\n267,334,329,321,294\n268,334,329,321,294\n267,334,329,321,293\n268,335,329,321,293\n268,334,329,321,293\n267,334,328,321,294\n267,335,329,321,293\n267,334,329,321,294\n267,335,329,321,294\n268,334,329,321,295\n267,334,329,321,294\n267,335,329,321,293\n267,334,329,321,293\n267,334,329,321,294\n267,335,329,321,293\n267,334,329,321,294\n267,334,329,321,293\n268,335,329,321,295\n', b'267,334,329,321,293\n269,334,329,321,294\n267,332,330,321,293\n268,334,329,321,293\n268,334,329,321,293\n269,334,329,321,292\n268,334,329,322,294\n268,334,330,322,294\n268,335,329,321,293\n267,334,329,321,294\n268,335,329,322,293\n268,335,329,321,293\n268,334,329,321,293\n268,334,329,321,294\n268,334,329,321,294\n267,335,329,321,294\n268,335,329,321,294\n268,335,329,321,294\n267,334,329,321,294\n268,335,329,321,294\n268,335,329,321,294\n268,335,329,321,293\n268,335,329,321,294\n268,335,329,321,294\n267,335,330,321,295\n267,335,329,321,294\n267,334,330,321,294\n268,334,329,321,294\n268,334,330,321,294\n268,334,330,321,294\n268,334,329,321,294\n268,335,329,321,294\n268,335,329,321,294\n268,335,330,322,294\n268,334,329,321,293\n268,335,329,322,294\n268,334,329,321,294\n268,335,329,322,293\n268,334,329,321,293\n268,335,329,321,294\n269,335,330,321,294\n268,334,329,322,294\n268,334,329,321,295\n268,335,329,322,293\n268,335,329,322,293\n268,335,329,321,294\n268,335,328,321,294\n267,335,329,321,295\n268,335,329,321,294\n268,335,329,321,295\n', b'267,335,330,321,294\n268,335,330,321,294\n268,335,330,321,294\n269,335,329,321,294\n268,335,329,321,293\n268,335,330,321,294\n268,335,330,321,294\n268,334,329,321,294\n268,334,330,321,294\n268,335,330,322,294\n268,335,330,322,294\n269,335,329,321,293\n268,334,330,322,293\n268,335,329,322,294\n268,335,329,321,293\n268,334,329,321,293\n268,335,329,321,294\n268,334,329,321,294\n269,334,329,322,294\n268,335,329,322,294\n267,335,329,321,295\n268,335,329,322,295\n268,335,330,321,294\n269,335,330,321,294\n268,334,329,321,294\n269,335,329,321,294\n269,335,330,321,294\n268,335,329,321,294\n268,335,330,321,294\n268,335,330,321,295\n269,335,330,321,295\n269,335,330,321,294\n268,335,329,321,294\n267,335,329,321,294\n268,335,329,321,294\n267,335,330,321,294\n269,335,329,321,295\n268,334,329,321,294\n267,335,329,321,294\n268,334,329,321,294\n268,334,330,321,293\n268,335,330,321,294\n268,335,329,321,294\n269,334,331,322,293\n267,334,329,321,294\n269,335,329,321,294\n269,335,329,321,294\n268,335,330,322,294\n269,335,330,321,295\n268,335,331,322,294\n', b'268,335,329,321,294\n269,335,330,322,294\n268,335,330,321,294\n268,335,329,321,295\n269,335,329,321,294\n268,335,330,321,295\n269,335,329,321,294\n268,335,330,321,294\n268,336,329,321,293\n269,335,330,321,294\n269,335,330,321,294\n268,334,330,321,294\n267,336,330,322,295\n269,335,329,321,295\n267,335,329,321,294\n268,335,329,321,293\n269,335,330,321,294\n269,334,329,321,293\n269,335,331,322,294\n268,335,330,322,294\n268,335,329,321,293\n268,334,330,322,294\n269,335,330,321,293\n269,335,329,321,294\n269,335,330,321,294\n269,335,330,323,294\n268,335,329,322,295\n268,335,330,322,294\n269,335,329,321,294\n269,335,330,321,294\n269,335,330,322,294\n269,335,330,321,294\n268,335,330,321,295\n268,335,330,321,295\n268,335,330,321,295\n269,335,330,321,295\n268,335,330,321,295\n269,335,330,321,295\n269,335,330,321,294\n268,335,330,322,294\n267,336,330,322,294\n268,335,330,321,294\n268,335,330,321,295\n269,335,330,321,295\n269,335,330,322,295\n268,335,330,321,294\n269,335,330,322,294\n269,335,330,322,294\n268,335,330,321,294\n269,335,330,321,294\n']___EMG_[b'016,-187500.016,-187500.016][-2268.747,6428.294,1600.139,6989.479,-187500.016,-187500.016,-187500.016,-187500.016][-2298.966,6413.251,1576.267,6977.499,-187500.016,-187500.016,-187500.016,-187500.016][-2295.546,6421.857,1578.726,6975.711,-187500.016,-187500.016,-187500.016,-187500.016][-2293.557,6419.846,1586.326,6997.728,-187500.016,-187500.016,-187500.016,-187500.016][-2278.313,6423.980,1606.911,7014.178,-187500.016,-187500.016,-187500.016,-187500.016][-2296.887,6417.722,1567.573,6979.689,-187500.016,-187500.016,-187500.016,-187500.016][-2290.964,6426.260,1587.153,6967.620,-187500.016,-187500.016,-187500.016,-187500.016][-2279.252,6433.212,1617.797,6968.581,-187500.016,-187500.016,-187500.016,-187500.016][-2289.556,6419.287,1622.468,6983.646,-187500.016,-187500.016,-187500.016,-187500.016][-2310.522,6401.830,1651.034,6965.608,-187500.016,-187500.016,-187500.016,-187500.016][-2310.790,6401.584,1592.405,6951.370,-187500.016,-187500.016,-187500.016,-187500.016][-2294.406,6418.236,1587.667,6962.300,-187500.016,-187500.016,-187500.016,-187500.016][-2267.450,6431.290,1610.622,7005.059,-187500.016,-187500.016,-187500.016,-187500.016][-2279.967,6410.502,1562.230,6981.522,-187500.016,-187500.016,-187500.016,-187500.016][-2267.495,6419.398,1583.755,6977.052,-187500.016,-187500.016,-187500.016,-187500.016][-2262.399,6450.870,1603.894,6985.658,-187500.016,-187500.016,-187500.016,-187500.016][-2278.135,6430.753,1615.584,6977.901,-187500.016,-187500.016,-187500.016,-187500.016][-2290.003,6425.746,1599.446,6962.702,-187500.016,-187500.016,-187500.016,-187500.016][-2291.590,6422.014,1584.180,6964.133,-187500.016,-187500.016,-187500.016,-187500.016][-2285.980,6423.578,1607.493,6985.613,-187500.016,-187500.016,-187500.016,-187500.016][-2281.688,6417.834,1640.730,6994.777,-187500.016,-187500.016,-187500.016,-187500.016][-2302.364,6401.673,1611.449,6960.914,-187500.016,-187500.016,-187500.016,-187500.016][-2297.469,6402.948,1641.110,6945.648,-187500.016,-187500.016,-187500.016,-187500.016][-2277.754,6426.328,1581.431,6957.114,-187500.016,-187500.016,-187500.016,-187500.016][-2284.818,6429.323,1605.548,6972.224,-187500.016,-187500.016,-187500.016,-187500.016][-2288.528,6416.806,1602.374,6970.816,-187500.016,-187500.016,-187500.016,-187500.016][-2271.250,6431.893,1588.091,6994.062,-187500.016,-187500.016,-187500.016,-187500.016][-2282.336,6423.131,1588.941,6976.381,-187500.016,-187500.016,-187500.016,-187500.016][-2282.694,6412.961,1589.365,6949.560,-187500.016,-187500.016,-187500.016,-187500.016][-2278.648,6413.811,1611.672,6966.435,-187500.016,-187500.016,-187500.016,-187500.016][-2277.509,6426.439,1604.185,6987.468,-187500.016,-187500.016,-187500.016,-187500.016][-2284.214,6425.143,1602.978,6973.118,-187500.016,-187500.016,-187500.016,-187500.016][-2284.840,6424.629,1608.387,6963.440,-187500.016,-187500.016,-187500.016,-187500.016][-2283.990,6417.163,1611.002,6967.284,-187500.016,-187500.016,-187500.016,-187500.016][-2284.058,6415.710,1625.642,6959.305,-187500.016,-187500.016,-187500.016,-187500.016][-2270.468,6424.584,1627.408,6956.846,-187500.016,-187500.016,-187500.016,-187500.016][-2266.109,6436.251,1635.432,6979.376,-187500.016,-187500.016,-187500.016,-187500.016][-2270.401,6421.991,1608.677,6969.810,-187500.016,-187500.016,-187500.016,-187500.016][-2294.161,6408.558,1590.058,6954.164,-187500.016,-187500.016,-187500.016,-187500.016][-2283.678,6417.499,1612.656,6963.306,-187500.016,-187500.016,-187500.016,-187500.016][-2298.631,6404.624,1694.977,6963.574,-187500.016,-187500.016,-187500.016,-187500.016][-2308.712,6394.968,1601.301,6938.495,-187500.016,-187500.016,-187500.016,-187500.016][-2289.802,6406.233,1589.634,6956.042,-187500.016,-187500.016,-187500.016,-187500.016][-2285.063,6423.802,1603.693,6946.430,-187500.016,-187500.016,-187500.016,-187500.016][-2266.132,6443.538,1619.473,6980.249,-187500.016,-187500.016,-187500.016,-187500.016][-2261.929,6429.680,1588.829,6979.824,-187500.016,-187500.016,-187500.016,-187500.016][-2259.426,6432.250,1601.905,6957.249,-187500.016,-187500.016,-187500.016,-187500.016][-2283.700,6423.623,1621.5', b'52,6957.204,-187500.016,-187500.016,-187500.016,-187500.016][-2285.533,6418.929,1605.347,6942.966,-187500.016,-187500.016,-187500.016,-187500.016][-2285.533,6418.393,1634.583,6931.969,-187500.016,-187500.016,-187500.016,-187500.016][-2304.666,6395.527,1660.958,6922.536,-187500.016,-187500.016,-187500.016,-187500.016][-2270.021,6423.757,1677.342,6962.144,-187500.016,-187500.016,-187500.016,-187500.016][-2267.182,6421.589,1527.921,6965.116,-187500.016,-187500.016,-187500.016,-187500.016][-2273.955,6411.732,1563.303,6955.438,-187500.016,-187500.016,-187500.016,-187500.016][-2287.835,6409.899,1590.684,6934.092,-187500.016,-187500.016,-187500.016,-187500.016][-2265.506,6428.920,1630.694,6964.647,-187500.016,-187500.016,-187500.016,-187500.016][-2278.135,6418.326,1605.637,6966.458,-187500.016,-187500.016,-187500.016,-187500.016][-2283.074,6418.236,1612.120,6933.757,-187500.016,-187500.016,-187500.016,-187500.016][-2295.301,6409.921,1657.985,6935.277,-187500.016,-187500.016,-187500.016,-187500.016][-2308.823,6378.942,1624.279,6970.525,-187500.016,-187500.016,-187500.016,-187500.016][-2291.434,6412.715,1594.082,6937.690,-187500.016,-187500.016,-187500.016,-187500.016][-2247.110,6461.420,1639.568,6950.074,-187500.016,-187500.016,-187500.016,-187500.016][-2258.107,6433.860,1651.950,6945.111,-187500.016,-187500.016,-187500.016,-187500.016][-2288.416,6406.546,1648.776,6936.260,-187500.016,-187500.016,-187500.016,-187500.016][-2280.504,6422.014,1635.611,6938.563,-187500.016,-187500.016,-187500.016,-187500.016][-2269.127,6419.488,1635.209,6934.830,-187500.016,-187500.016,-187500.016,-187500.016][-2294.541,6403.641,1563.259,6925.666,-187500.016,-187500.016,-187500.016,-187500.016][-2272.211,6426.842,1593.232,6964.155,-187500.016,-187500.016,-187500.016,-187500.016][-2264.925,6430.798,1597.501,6955.058,-187500.016,-187500.016,-187500.016,-187500.016][-2274.491,6424.986,1613.707,6948.397,-187500.016,-187500.016,-187500.016,-187500.016][-2276.369,6415.912,1639.098,6953.225,-187500.016,-187500.016,-187500.016,-187500.016][-2278.783,6407.396,1623.295,6945.424,-187500.016,-187500.016,-187500.016,-187500.016][-2266.668,6423.869,1623.809,6950.342,-187500.016,-187500.016,-187500.016,-187500.016][-2267.227,6428.026,1626.335,6952.532,-187500.016,-187500.016,-187500.016,-187500.016][-2272.412,6411.330,1624.547,6950.454,-187500.016,-187500.016,-187500.016,-187500.016][-2295.993,6403.663,1622.982,6930.113,-187500.016,-187500.016,-187500.016,-187500.016][-2302.073,6403.439,1634.337,6923.497,-187500.016,-187500.016,-187500.016,-187500.016][-2285.399,6411.352,1650.922,6933.421,-187500.016,-187500.016,-187500.016,-187500.016][-2279.520,6414.437,1608.990,6943.078,-187500.016,-187500.016,-187500.016,-187500.016][-2273.552,6410.569,1635.209,6950.476,-187500.016,-187500.016,-187500.016,-187500.016][-2272.927,6419.376,1623.541,6942.876,-187500.016,-187500.016,-187500.016,-187500.016][-2267.003,6422.081,1636.058,6963.462,-187500.016,-187500.016,-187500.016,-187500.016][-2268.188,6424.540,1661.942,6957.070,-187500.016,-187500.016,-187500.016,-187500.016][-2271.250,6422.773,1638.003,6958.187,-187500.016,-187500.016,-187500.016,-187500.016][-2287.813,6401.338,1590.483,6942.787,-187500.016,-187500.016,-187500.016,-187500.016][-2283.588,6410.167,1608.767,6939.300,-187500.016,-187500.016,-187500.016,-187500.016][-2270.714,6424.070,1624.994,6935.500,-187500.016,-187500.016,-187500.016,-187500.016][-2264.835,6416.314,1653.537,6930.203,-187500.016,-187500.016,-187500.016,-187500.016][-2279.431,6393.001,1626.894,6936.931,-187500.016,-187500.016,-187500.016,-187500.016][-2290.495,6408.334,1611.963,6928.728,-187500.016,-187500.016,-187500.016,-187500.016][-2274.826,6425.389,1623.966,6923.028,-187500.016,-187500.016,-187500.016,-187500.016][-2284.013,6409.497,1633.979,6933.869,-187500.016,-187500.016,-187500.016,-187500.016][-2284.594,6409.184,1644.284,6939.077,-187500.016,-187500.016,-187500.016,-187500.016][-2274.424,6416.917,1635.522,6935.165,-187500.016,-187500.016,-187500.016,-187500.016][-2270.133,6423.936,1636.438,6926.269,-187500.016,-187500.016,-187500.016,-18750']
INDEX_b'4.009452819824219'___FLEX_[b'269,335,330,321,294\n268,335,330,322,294\n269,335,330,321,294\n269,335,330,322,294\n269,335,330,322,293\n269,335,330,321,294\n268,335,330,322,295\n268,335,329,321,294\n269,335,330,321,294\n269,335,330,322,295\n269,335,329,321,294\n269,335,330,322,294\n269,335,330,321,294\n270,335,330,322,294\n269,335,330,321,292\n269,335,330,322,295\n268,334,330,321,294\n269,335,330,322,294\n268,335,330,321,295\n269,335,330,321,294\n269,335,329,322,294\n269,335,331,322,294\n268,335,330,321,294\n269,335,330,321,295\n269,335,330,321,294\n269,335,330,322,295\n269,335,330,321,295\n269,335,330,321,293\n269,335,330,321,294\n268,335,330,322,295\n269,335,330,321,294\n269,335,330,321,296\n269,335,330,321,295\n269,335,331,321,294\n268,335,329,322,295\n269,335,329,321,294\n269,335,330,322,295\n269,335,331,321,295\n269,335,330,322,294\n268,335,330,322,295\n269,334,330,321,295\n268,335,330,322,295\n269,334,330,321,295\n269,335,329,322,294\n269,335,330,321,294\n269,335,329,321,294\n269,335,330,321,294\n269,335,330,321,295\n268,334,330,322,295\n269,335,329,321,295\n', b'269,335,330,321,293\n269,335,330,322,295\n269,335,329,322,295\n269,335,329,322,294\n269,335,330,322,295\n269,335,329,321,295\n269,335,330,321,295\n269,334,330,322,294\n269,334,330,321,294\n269,334,330,321,295\n269,335,330,321,294\n269,335,329,321,295\n269,335,329,322,294\n269,335,330,322,295\n269,335,331,322,294\n269,335,330,322,295\n269,335,330,321,294\n269,335,330,322,294\n269,335,330,321,294\n269,335,330,322,294\n269,335,330,321,295\n268,335,331,322,295\n268,335,330,322,295\n269,335,330,322,295\n269,335,330,322,295\n269,335,330,322,294\n269,335,330,322,295\n268,335,330,321,294\n269,335,330,322,294\n269,335,330,321,295\n269,335,330,322,295\n269,335,330,322,295\n269,335,330,321,295\n269,335,330,321,295\n269,336,331,322,295\n269,335,330,322,295\n269,335,330,322,295\n269,335,330,322,295\n267,335,330,321,294\n269,335,331,322,295\n269,335,329,322,294\n269,335,330,321,295\n268,335,330,322,295\n269,335,330,322,294\n269,335,331,322,295\n269,335,330,322,294\n269,335,330,321,295\n269,335,330,322,294\n269,335,330,322,295\n269,335,329,321,295\n', b'269,335,330,321,295\n269,335,330,322,295\n268,335,330,321,295\n269,335,330,321,295\n268,334,330,321,295\n269,335,330,322,295\n269,335,331,321,295\n269,334,329,322,295\n269,335,330,322,295\n269,334,330,321,294\n269,335,330,322,295\n269,335,330,322,295\n269,335,330,321,295\n269,335,330,321,294\n269,335,330,321,295\n269,335,330,322,294\n269,335,330,322,295\n269,336,330,322,295\n269,335,330,321,294\n269,335,330,322,296\n269,335,330,321,294\n270,335,331,322,294\n269,335,330,322,294\n269,335,330,321,295\n269,335,330,322,295\n269,334,330,320,295\n269,335,329,321,294\n269,334,330,322,295\n269,336,330,322,295\n269,335,330,322,295\n269,335,330,322,295\n269,335,330,322,295\n269,335,330,322,295\n269,335,330,321,295\n269,335,330,321,295\n269,335,330,322,295\n269,335,330,322,295\n269,335,330,321,295\n269,335,330,322,295\n268,335,330,322,295\n269,335,330,322,295\n270,335,330,322,295\n269,335,330,322,295\n269,335,330,322,295\n269,335,330,322,295\n269,335,330,321,295\n269,335,330,321,295\n269,335,330,321,295\n269,335,330,321,295\n269,335,330,322,293\n', b'269,336,331,321,295\n269,335,330,322,295\n269,335,330,321,295\n269,336,330,322,296\n269,335,330,322,295\n269,335,330,321,295\n269,335,330,322,296\n268,335,330,322,295\n269,335,330,321,295\n269,335,330,322,295\n269,335,330,322,295\n269,335,330,322,295\n269,335,330,321,295\n269,335,330,322,295\n269,335,330,322,295\n269,335,329,322,295\n269,336,330,322,296\n269,335,329,321,295\n269,335,330,322,295\n269,335,330,322,295\n269,335,330,321,295\n269,335,331,322,295\n268,336,330,321,295\n269,335,330,322,295\n269,335,330,321,296\n268,335,330,321,295\n269,335,330,321,295\n268,336,330,322,295\n269,337,330,321,296\n269,335,330,321,295\n268,335,331,321,295\n268,335,330,322,295\n268,335,330,322,296\n268,335,330,321,295\n268,335,331,322,295\n269,336,330,322,294\n269,335,329,322,295\n269,335,330,322,294\n269,336,330,322,295\n268,335,330,322,295\n269,335,330,322,295\n268,335,330,322,295\n268,335,329,321,295\n269,336,330,322,295\n269,335,330,321,295\n269,335,330,322,295\n269,335,330,322,295\n269,336,329,322,294\n268,335,330,322,295\n269,335,330,321,295\n']___EMG_[b'0.016][-2297.759,6390.744,1681.477,6926.984,-187500.016,-187500.016,-187500.016,-187500.016][-2321.385,6369.800,1664.557,6912.076,-187500.016,-187500.016,-187500.016,-187500.016][-2262.980,6413.341,1632.124,6931.700,-187500.016,-187500.016,-187500.016,-187500.016][-2272.345,6415.196,1538.381,6913.037,-187500.016,-187500.016,-187500.016,-187500.016][-2256.476,6435.000,1622.401,6942.966,-187500.016,-187500.016,-187500.016,-187500.016][-2270.982,6414.906,1624.547,6941.915,-187500.016,-187500.016,-187500.016,-187500.016][-2276.950,6406.926,1613.662,6927.677,-187500.016,-187500.016,-187500.016,-187500.016][-2255.112,6420.695,1627.252,6938.629,-187500.016,-187500.016,-187500.016,-187500.016][-2264.701,6428.741,1662.679,6945.692,-187500.016,-187500.016,-187500.016,-187500.016][-2298.586,6403.395,1670.659,6929.778,-187500.016,-187500.016,-187500.016,-187500.016][-2301.358,6384.172,1632.884,6917.172,-187500.016,-187500.016,-187500.016,-187500.016][-2274.223,6420.427,1669.385,6925.666,-187500.016,-187500.016,-187500.016,-187500.016][-2292.082,6406.054,1625.844,6914.825,-187500.016,-187500.016,-187500.016,-187500.016][-2274.379,6417.230,1636.438,6937.937,-187500.016,-187500.016,-187500.016,-187500.016][-2275.944,6411.150,1648.508,6947.928,-187500.016,-187500.016,-187500.016,-187500.016][-2292.886,6399.170,1638.562,6936.394,-187500.016,-187500.016,-187500.016,-187500.016][-2306.946,6379.948,1605.548,6908.678,-187500.016,-187500.016,-187500.016,-187500.016][-2264.478,6416.314,1663.037,6940.194,-187500.016,-187500.016,-187500.016,-187500.016][-2288.863,6397.315,1602.128,6901.458,-187500.016,-187500.016,-187500.016,-187500.016][-2261.885,6421.835,1613.304,6939.255,-187500.016,-187500.016,-187500.016,-187500.016][-2251.826,6433.234,1651.101,6950.454,-187500.016,-187500.016,-187500.016,-187500.016][-2270.222,6421.745,1649.089,6932.907,-187500.016,-187500.016,-187500.016,-187500.016][-2277.218,6416.180,1626.961,6938.719,-187500.016,-187500.016,-187500.016,-187500.016][-2280.481,6404.803,1614.489,6917.485,-187500.016,-187500.016,-187500.016,-187500.016][-2291.501,6404.825,1645.848,6896.161,-187500.016,-187500.016,-187500.016,-187500.016][-2315.641,6381.892,1735.479,6888.003,-187500.016,-187500.016,-187500.016,-187500.016][-2259.247,6422.930,1650.162,6948.196,-187500.016,-187500.016,-187500.016,-187500.016][-2268.389,6425.098,1565.874,6926.984,-187500.016,-187500.016,-187500.016,-187500.016][-2272.345,6419.376,1599.111,6923.766,-187500.016,-187500.016,-187500.016,-187500.016][-2262.756,6410.234,1638.226,6924.212,-187500.016,-187500.016,-187500.016,-187500.016][-2278.291,6414.503,1669.228,6930.493,-187500.016,-187500.016,-187500.016,-187500.016][-2288.796,6409.832,1643.814,6920.949,-187500.016,-187500.016,-187500.016,-187500.016][-2301.201,6401.495,1633.018,6902.844,-187500.016,-187500.016,-187500.016,-187500.016][-2286.807,6408.603,1687.311,6934.718,-187500.016,-187500.016,-187500.016,-187500.016][-2278.850,6406.144,1662.299,6947.615,-187500.016,-187500.016,-187500.016,-187500.016][-2278.827,6405.742,1607.493,6943.256,-187500.016,-187500.016,-187500.016,-187500.016][-2267.629,6429.166,1632.728,6918.155,-187500.016,-187500.016,-187500.016,-187500.016][-2270.133,6424.249,1654.990,6913.998,-187500.016,-187500.016,-187500.016,-187500.016][-2268.322,6415.241,1652.643,6926.135,-187500.016,-187500.016,-187500.016,-187500.016][-2283.141,6412.291,1643.255,6919.966,-187500.016,-187500.016,-187500.016,-187500.016][-2278.559,6416.090,1636.438,6916.367,-187500.016,-187500.016,-187500.016,-187500.016][-2278.626,6409.497,1667.440,6920.860,-187500.016,-187500.016,-187500.016,-187500.016][-2281.755,6400.265,1637.131,6933.779,-187500.016,-187500.016,-187500.016,-187500.016][-2270.512,6401.316,1629.464,6927.610,-187500.016,-187500.016,-187500.016,-187500.016][-2269.574,6420.069,1646.854,6921.441,-187500.016,-187500.016,-187500.016,-187500.016][-2294.228,6407.329,1661.159,6910.913,-187500.016,-187500.016,-187500.016,-187500.016][-2288.148,6404.065,1704.119,6922.291,-187500.016,-187500.016,-187500.016,-187500.016][-2280.437,6411.486,1687.288,6938.003,-187500.01', b'6,-187500.016,-187500.016,-187500.016][-2315.484,6388.799,1664.333,6901.324,-187500.016,-187500.016,-187500.016,-187500.016][-2281.465,6418.370,1618.222,6927.655,-187500.016,-187500.016,-187500.016,-187500.016][-2258.957,6421.164,1624.905,6942.317,-187500.016,-187500.016,-187500.016,-187500.016][-2300.196,6384.306,1631.409,6903.761,-187500.016,-187500.016,-187500.016,-187500.016][-2281.755,6403.708,1609.638,6898.665,-187500.016,-187500.016,-187500.016,-187500.016][-2261.438,6426.059,1618.222,6919.988,-187500.016,-187500.016,-187500.016,-187500.016][-2250.552,6421.343,1657.538,6932.840,-187500.016,-187500.016,-187500.016,-187500.016][-2284.661,6401.853,1657.695,6921.418,-187500.016,-187500.016,-187500.016,-187500.016][-2278.514,6418.951,1660.869,6927.610,-187500.016,-187500.016,-187500.016,-187500.016][-2277.688,6421.455,1685.478,6915.585,-187500.016,-187500.016,-187500.016,-187500.016][-2289.914,6393.403,1648.843,6894.373,-187500.016,-187500.016,-187500.016,-187500.016][-2296.016,6383.457,1657.851,6896.206,-187500.016,-187500.016,-187500.016,-187500.016][-2311.059,6392.397,1701.482,6909.639,-187500.016,-187500.016,-187500.016,-187500.016][-2316.624,6386.340,1711.048,6891.825,-187500.016,-187500.016,-187500.016,-187500.016][-2278.425,6408.669,1589.656,6904.700,-187500.016,-187500.016,-187500.016,-187500.016][-2280.213,6402.836,1646.742,6926.828,-187500.016,-187500.016,-187500.016,-187500.016][-2278.224,6405.764,1665.607,6925.822,-187500.016,-187500.016,-187500.016,-187500.016][-2275.005,6404.892,1567.416,6885.365,-187500.016,-187500.016,-187500.016,-187500.016][-2292.305,6386.362,1607.917,6881.186,-187500.016,-187500.016,-187500.016,-187500.016][-2252.542,6447.092,1707.182,6934.427,-187500.016,-187500.016,-187500.016,-187500.016][-2239.488,6445.550,1652.531,6942.765,-187500.016,-187500.016,-187500.016,-187500.016][-2246.775,6432.608,1639.702,6930.069,-187500.016,-187500.016,-187500.016,-187500.016][-2278.582,6426.708,1661.562,6927.945,-187500.016,-187500.016,-187500.016,-187500.016][-2279.118,6414.593,1706.980,6921.776,-187500.016,-187500.016,-187500.016,-187500.016][-2278.157,6404.512,1691.178,6918.960,-187500.016,-187500.016,-187500.016,-187500.016][-2283.253,6395.639,1612.522,6906.890,-187500.016,-187500.016,-187500.016,-187500.016][-2296.731,6394.096,1613.148,6892.496,-187500.016,-187500.016,-187500.016,-187500.016][-2268.233,6411.128,1671.598,6901.302,-187500.016,-187500.016,-187500.016,-187500.016][-2275.788,6415.464,1720.458,6908.276,-187500.016,-187500.016,-187500.016,-187500.016][-2300.754,6396.398,1648.687,6892.942,-187500.016,-187500.016,-187500.016,-187500.016][-2290.785,6403.216,1666.948,6896.653,-187500.016,-187500.016,-187500.016,-187500.016][-2296.195,6399.930,1723.856,6893.703,-187500.016,-187500.016,-187500.016,-187500.016][-2311.215,6381.065,1666.457,6886.103,-187500.016,-187500.016,-187500.016,-187500.016][-2241.410,6438.286,1621.239,6960.176,-187500.016,-187500.016,-187500.016,-187500.016][-2241.902,6435.022,1639.746,6936.171,-187500.016,-187500.016,-187500.016,-187500.016][-2265.550,6426.104,1654.253,6913.640,-187500.016,-187500.016,-187500.016,-187500.016][-2279.699,6414.079,1673.788,6915.719,-187500.016,-187500.016,-187500.016,-187500.016][-2288.193,6391.705,1654.856,6901.414,-187500.016,-187500.016,-187500.016,-187500.016][-2288.126,6398.388,1641.825,6899.670,-187500.016,-187500.016,-187500.016,-187500.016][-2271.697,6391.750,1627.743,6914.132,-187500.016,-187500.016,-187500.016,-187500.016][-2316.602,6376.237,1647.011,6881.521,-187500.016,-187500.016,-187500.016,-187500.016][-2317.675,6383.412,1713.798,6855.347,-187500.016,-187500.016,-187500.016,-187500.016][-2261.080,6436.185,1667.619,6922.693,-187500.016,-187500.016,-187500.016,-187500.016][-2249.435,6438.509,1646.318,6948.464,-187500.016,-187500.016,-187500.016,-187500.016][-2281.599,6406.367,1698.062,6878.458,-187500.016,-187500.016,-187500.016,-187500.016][-2255.157,6425.523,1676.157,6908.902,-187500.016,-187500.016,-187500.016,-187500.016][-2259.560,6429.792,1652.599,6916.881,-187500.016,-187500.016,-187500.016,-187500.016][-2275.385,6418.']
