INDEX_b'0.40196895599365234'___FLEX_[]___EMG_[b'[-1124.650,3479.451,3325.783,6995.961,-187500.016,-187500.016,-187500.016,-187500.016][-1130.842,3467.672,3328.890,7083.514,-187500.016,-187500.016,-187500.016,-187500.016][-1124.203,3465.727,3358.931,7195.228,-187500.016,-187500.016,-187500.016,-187500.016][-1118.504,3478.825,3317.893,7040.553,-187500.016,-187500.016,-187500.016,-187500.016][-1105.227,3490.135,3322.676,6985.277,-187500.016,-187500.016,-187500.016,-187500.016][-1127.243,3470.958,3371.492,7048.734,-187500.016,-187500.016,-187500.016,-187500.016][-1112.826,3479.854,3340.043,7141.896,-187500.016,-187500.016,-187500.016,-187500.016][-1104.578,3484.883,3313.825,7111.699,-187500.016,-187500.016,-187500.016,-187500.016][-1091.369,3501.758,3326.230,7020.884,-187500.016,-187500.016,-187500.016,-187500.016][-1109.071,3482.536,3360.003,7097.707,-187500.016,-187500.016,-187500.016,-187500.016][-1139.693,3454.551,3345.095,7138.566,-187500.016,-187500.016,-187500.016,-187500.016][-1115.911,3477.082,3356.874,7107.608,-187500.016,-187500.016,-187500.016,-187500.016][-1095.168,3497.020,3310.874,7027.411,-187500.016,-187500.016,-187500.016,-187500.016][-1103.148,3489.934,3338.591,7075.668,-187500.016,-187500.016,-187500.016,-187500.016][-1111.128,3491.409,3365.167,7121.579,-187500.016,-187500.016,-187500.016,-187500.016][-1121.208,3478.512,3335.819,7074.170,-187500.016,-187500.016,-187500.016,-187500.016][-1109.719,3487.297,3319.815,6996.900,-187500.016,-187500.016,-187500.016,-187500.016][-1112.580,3482.603,3332.220,7029.467,-187500.016,-187500.016,-187500.016,-187500.016][-1112.133,3486.403,3384.568,7123.590,-187500.016,-187500.016,-187500.016,-187500.016][-1149.505,3454.328,3384.814,7092.342,-187500.016,-187500.016,-187500.016,-187500.016][-1118.168,3479.183,3308.013,7017.196,-187500.016,-187500.016,-187500.016,-187500.016][-1107.663,3489.577,3323.168,7023.655,-187500.016,-187500.016,-187500.016,-187500.016][-1115.218,3480.748,3353.186,7116.840,-187500.016,-187500.016,-187500.016,-187500.016][-1108.512,3483.698,3357.902,7164.583,-187500.016,-187500.016,-187500.016,-187500.016][-1129.277,3458.329,3263.310,7053.227,-187500.016,-187500.016,-187500.016,-187500.016][-1099.214,3493.175,3332.578,6987.580,-187500.016,-187500.016,-187500.016,-187500.016][-1112.245,3484.503,3378.176,7090.845,-187500.016,-187500.016,-187500.016,-187500.016][-1133.591,3456.317,3349.610,7168.048,-187500.016,-187500.016,-187500.016,-187500.016][-1099.460,3487.721,3342.480,7061.162,-187500.016,-187500.016,-187500.016,-187500.016][-1102.254,3491.365,3345.698,7014.715,-187500.016,-187500.016,-187500.016,-187500.016][-1131.266,3458.284,3335.640,7066.526,-187500.016,-187500.016,-187500.016,-187500.016][-1132.473,3457.122,3354.527,7117.801,-187500.016,-187500.016,-187500.016,-187500.016][-1090.452,3494.516,3347.442,7119.231,-187500.016,-187500.016,-187500.016,-187500.016][-1105.830,3481.418,3299.475,7022.717,-187500.016,-187500.016,-187500.016,-187500.016][-1136.340,3453.009,3298.223,7015.966,-187500.016,-187500.016,-187500.016,-187500.016][-1111.351,3479.116,3392.950,7184.499,-187500.016,-187500.016,-187500.016,-187500.016][-1092.821,3496.394,3368.341,7112.861,-187500.016,-187500.016,-187500.016,-187500.016][-1105.562,3488.213,3341.854,7000.521,-187500.016,-187500.016,-187500.016,-187500.016][-1139.805,3452.316,3313.892,6981.344,-187500.016,-187500.016,-187500.016,-187500.016][-1103.081,3481.374,3389.977,7176.206,-187500.016,-187500.016,-187500.016,-187500.016][-1088.239,3496.930,3379.025,7143.461,-187500.016,-187500.016,-187500.016,-187500.016][-1096.331,3492.303,3332.489,7012.726,-187500.016,-187500.016,-187500.016,-187500.016][-1104.444,3488.280,3318.362,7047.594,-187500.016,-187500.016,-187500.016,-187500.016][-1115.106,3476.121,3369.838,7100.590,-187500.016,-187500.016,-187500.016,-187500.016][-1130.797,3463.380,3364.250,7117.958,-187500.016,-187500.016,-187500.016,-187500.016][-1117.185,3478.468,3330.142,7021.935,-187500.016,-187500.016,-187500.016,-187500.016][-1103.081,3492.192,3341.340,7021.532,-187500.016,-187500.016,-187500.016,-187500.016][-1123.980,3463.693,3332.958,7097.662,-187500.016,-187', b'500.016,-187500.016,-187500.016][-1131.870,3452.473,3334.657,7132.106,-187500.016,-187500.016,-187500.016,-187500.016][-1140.922,3440.716,3298.961,7050.947,-187500.016,-187500.016,-187500.016,-187500.016][-1084.998,3502.496,3335.461,7057.228,-187500.016,-187500.016,-187500.016,-187500.016][-1104.333,3481.776,3356.114,7089.750,-187500.016,-187500.016,-187500.016,-187500.016][-1118.235,3467.962,3359.937,7149.854,-187500.016,-187500.016,-187500.016,-187500.016][-1123.890,3458.038,3301.531,7058.569,-187500.016,-187500.016,-187500.016,-187500.016][-1095.638,3486.470,3348.023,6984.540,-187500.016,-187500.016,-187500.016,-187500.016][-1116.157,3480.546,3403.545,7078.507,-187500.016,-187500.016,-187500.016,-187500.016][-1123.265,3464.677,3392.391,7175.200,-187500.016,-187500.016,-187500.016,-187500.016][-1093.984,3487.945,3344.625,7105.955,-187500.016,-187500.016,-187500.016,-187500.016][-1090.474,3491.298,3328.532,6984.294,-187500.016,-187500.016,-187500.016,-187500.016][-1102.164,3480.681,3366.575,7090.934,-187500.016,-187500.016,-187500.016,-187500.016][-1123.622,3470.108,3345.005,7130.340,-187500.016,-187500.016,-187500.016,-187500.016][-1122.706,3464.945,3324.129,7072.002,-187500.016,-187500.016,-187500.016,-187500.016][-1102.902,3485.486,3315.970,7022.918,-187500.016,-187500.016,-187500.016,-187500.016][-1107.104,3475.182,3324.777,7091.292,-187500.016,-187500.016,-187500.016,-187500.016][-1109.451,3477.127,3382.109,7130.162,-187500.016,-187500.016,-187500.016,-187500.016][-1112.513,3471.315,3367.044,7102.043,-187500.016,-187500.016,-187500.016,-187500.016][-1117.855,3463.693,3311.388,7006.735,-187500.016,-187500.016,-187500.016,-187500.016][-1101.360,3476.948,3344.380,7106.245,-187500.016,-187500.016,-187500.016,-187500.016][-1101.181,3475.316,3362.574,7154.257,-187500.016,-187500.016,-187500.016,-187500.016][-1111.306,3481.105,3371.045,7073.075,-187500.016,-187500.016,-187500.016,-187500.016][-1129.165,3461.302,3347.375,6987.110,-187500.016,-187500.016,-187500.016,-187500.016][-1097.985,3488.392,3353.812,7031.099,-187500.016,-187500.016,-187500.016,-187500.016][-1088.105,3489.979,3388.658,7148.713,-187500.016,-187500.016,-187500.016,-187500.016][-1095.817,3479.384,3356.964,7141.605,-187500.016,-187500.016,-187500.016,-187500.016][-1106.881,3468.186,3322.944,7047.304,-187500.016,-187500.016,-187500.016,-187500.016][-1127.891,3458.664,3380.277,7011.585,-187500.016,-187500.016,-187500.016,-187500.016][-1115.598,3473.036,3372.319,7095.181,-187500.016,-187500.016,-187500.016,-187500.016][-1126.282,3458.128,3328.867,7159.397,-187500.016,-187500.016,-187500.016,-187500.016][-1095.884,3480.412,3334.947,7118.271,-187500.016,-187500.016,-187500.016,-187500.016][-1105.808,3465.727,3282.935,7019.855,-187500.016,-187500.016,-187500.016,-187500.016][-1113.519,3473.282,3364.340,7048.421,-187500.016,-187500.016,-187500.016,-187500.016][-1096.621,3486.157,3398.091,7179.335,-187500.016,-187500.016,-187500.016,-187500.016][-1118.079,3453.613,3287.830,7070.549,-187500.016,-187500.016,-187500.016,-187500.016][-1089.849,3486.358,3341.675,7013.039,-187500.016,-187500.016,-187500.016,-187500.016][-1095.079,3482.312,3369.704,7075.467,-187500.016,-187500.016,-187500.016,-187500.016][-1106.523,3460.899,3380.344,7146.635,-187500.016,-187500.016,-187500.016,-187500.016][-1101.852,3485.397,3364.586,7104.077,-187500.016,-187500.016,-187500.016,-187500.016][-1094.028,3493.421,3356.584,7035.189,-187500.016,-187500.016,-187500.016,-187500.016][-1097.538,3484.659,3378.824,7050.231,-187500.016,-187500.016,-187500.016,-187500.016][-1125.947,3453.613,3412.105,7133.850,-187500.016,-187500.016,-187500.016,-187500.016][-1120.851,3458.731,3311.098,7077.836,-187500.016,-187500.016,-187500.016,-187500.016][-1090.765,3485.687,3329.225,7016.860,-187500.016,-187500.016,-187500.016,-187500.016][-1095.615,3477.015,3348.247,7051.059,-187500.016,-187500.016,-187500.016,-187500.016][-1117.028,3467.180,3368.497,7164.159,-187500.016,-187500.016,-187500.016,-187500.016][-1115.732,3462.263,3376.633,7130.139,-187500.016,-187500.016,-187500.016,-187500.016][-1108.378,3467.046,32']
INDEX_b'0.8028578758239746'___FLEX_[]___EMG_[b'93.172,7000.700,-187500.016,-187500.016,-187500.016,-187500.016][-1102.299,3476.210,3304.124,7016.347,-187500.016,-187500.016,-187500.016,-187500.016][-1098.901,3479.295,3377.304,7109.732,-187500.016,-187500.016,-187500.016,-187500.016][-1091.078,3483.720,3387.362,7177.905,-187500.016,-187500.016,-187500.016,-187500.016][-1086.809,3488.392,3351.465,7074.059,-187500.016,-187500.016,-187500.016,-187500.016][-1094.878,3474.198,3327.057,7003.517,-187500.016,-187500.016,-187500.016,-187500.016][-1117.341,3451.511,3378.712,7133.492,-187500.016,-187500.016,-187500.016,-187500.016][-1130.015,3433.138,3392.168,7201.888,-187500.016,-187500.016,-187500.016,-187500.016][-1085.848,3496.774,3363.245,7056.110,-187500.016,-187500.016,-187500.016,-187500.016][-1094.453,3489.353,3326.476,7037.849,-187500.016,-187500.016,-187500.016,-187500.016][-1091.011,3488.124,3357.545,7071.600,-187500.016,-187500.016,-187500.016,-187500.016][-1109.675,3475.271,3403.008,7118.337,-187500.016,-187500.016,-187500.016,-187500.016][-1094.721,3483.162,3350.728,7084.207,-187500.016,-187500.016,-187500.016,-187500.016][-1096.331,3478.490,3333.561,6989.614,-187500.016,-187500.016,-187500.016,-187500.016][-1118.191,3460.966,3321.938,7038.251,-187500.016,-187500.016,-187500.016,-187500.016][-1093.693,3482.402,3427.819,7180.453,-187500.016,-187500.016,-187500.016,-187500.016][-1066.290,3501.423,3379.986,7123.143,-187500.016,-187500.016,-187500.016,-187500.016][-1072.727,3491.499,3302.224,7049.427,-187500.016,-187500.016,-187500.016,-187500.016][-1089.536,3479.563,3334.388,7099.942,-187500.016,-187500.016,-187500.016,-187500.016][-1087.278,3483.497,3377.483,7159.666,-187500.016,-187500.016,-187500.016,-187500.016][-1112.580,3469.885,3357.143,7106.603,-187500.016,-187500.016,-187500.016,-187500.016][-1106.456,3468.074,3331.818,6998.107,-187500.016,-187500.016,-187500.016,-187500.016][-1082.182,3493.890,3365.547,7035.904,-187500.016,-187500.016,-187500.016,-187500.016][-1107.372,3472.031,3365.614,7152.290,-187500.016,-187500.016,-187500.016,-187500.016][-1110.345,3459.379,3362.887,7112.526,-187500.016,-187500.016,-187500.016,-187500.016][-1102.410,3474.713,3382.378,7009.775,-187500.016,-187500.016,-187500.016,-187500.016][-1113.676,3466.264,3367.447,7019.587,-187500.016,-187500.016,-187500.016,-187500.016][-1087.569,3474.668,3374.443,7151.127,-187500.016,-187500.016,-187500.016,-187500.016][-1106.769,3467.873,3392.972,7136.465,-187500.016,-187500.016,-187500.016,-187500.016][-1114.816,3462.196,3320.799,7022.649,-187500.016,-187500.016,-187500.016,-187500.016][-1070.984,3502.719,3356.986,7001.729,-187500.016,-187500.016,-187500.016,-187500.016][-1091.302,3479.250,3389.843,7111.677,-187500.016,-187500.016,-187500.016,-187500.016][-1115.821,3455.870,3348.023,7192.545,-187500.016,-187500.016,-187500.016,-187500.016][-1077.578,3487.610,3339.485,7106.424,-187500.016,-187500.016,-187500.016,-187500.016][-1074.471,3497.221,3338.926,6996.632,-187500.016,-187500.016,-187500.016,-187500.016][-1096.375,3483.854,3362.239,7062.995,-187500.016,-187500.016,-187500.016,-187500.016][-1094.945,3485.598,3403.969,7167.042,-187500.016,-187500.016,-187500.016,-187500.016][-1117.542,3455.311,3360.562,7077.523,-187500.016,-187500.016,-187500.016,-187500.016][-1114.950,3453.546,3352.270,6987.110,-187500.016,-187500.016,-187500.016,-187500.016][-1101.963,3472.321,3394.582,7051.886,-187500.016,-187500.016,-187500.016,-187500.016][-1103.483,3472.701,3367.581,7156.224,-187500.016,-187500.016,-187500.016,-187500.016][-1093.492,3472.701,3324.263,7121.958,-187500.016,-187500.016,-187500.016,-187500.016][-1099.706,3474.333,3331.170,7041.112,-187500.016,-187500.016,-187500.016,-187500.016][-1084.820,3489.733,3399.119,7054.702,-187500.016,-187500.016,-187500.016,-187500.016][-1073.130,3494.159,3372.521,7164.472,-187500.016,-187500.016,-187500.016,-187500.016][-1098.990,3470.175,3384.344,7141.472,-187500.016,-187500.016,-187500.016,-187500.016][-1092.240,3472.187,3314.585,6995.649,-187500.016,-187500.016,-187500.016,-187500.016][-1100.622,3471.293,3352.963,7015.385,-187500.016,-187500.016,-187500.016,-1', b'87500.016][-1078.047,3502.272,3429.428,7130.698,-187500.016,-187500.016,-187500.016,-187500.016][-1082.048,3491.454,3376.879,7136.465,-187500.016,-187500.016,-187500.016,-187500.016][-1072.660,3491.633,3348.202,7051.104,-187500.016,-187500.016,-187500.016,-187500.016][-1102.299,3479.138,3354.281,6999.001,-187500.016,-187500.016,-187500.016,-187500.016][-1106.702,3477.015,3412.240,7122.093,-187500.016,-187500.016,-187500.016,-187500.016][-1127.400,3448.494,3379.315,7134.766,-187500.016,-187500.016,-187500.016,-187500.016][-1088.418,3476.143,3344.603,7076.584,-187500.016,-187500.016,-187500.016,-187500.016][-1070.447,3500.886,3364.787,7012.882,-187500.016,-187500.016,-187500.016,-187500.016][-1081.400,3489.912,3389.910,7099.808,-187500.016,-187500.016,-187500.016,-187500.016][-1094.811,3469.415,3401.399,7234.008,-187500.016,-187500.016,-187500.016,-187500.016][-1105.629,3461.860,3353.052,7080.876,-187500.016,-187500.016,-187500.016,-187500.016][-1073.308,3495.835,3382.087,6984.026,-187500.016,-187500.016,-187500.016,-187500.016][-1098.901,3476.926,3351.622,7090.398,-187500.016,-187500.016,-187500.016,-187500.016][-1112.044,3459.871,3332.913,7114.784,-187500.016,-187500.016,-187500.016,-187500.016][-1110.859,3464.610,3335.081,7050.433,-187500.016,-187500.016,-187500.016,-187500.016][-1075.812,3504.843,3400.795,6998.130,-187500.016,-187500.016,-187500.016,-187500.016][-1068.123,3504.619,3393.933,7112.928,-187500.016,-187500.016,-187500.016,-187500.016][-1090.050,3479.474,3396.213,7162.929,-187500.016,-187500.016,-187500.016,-187500.016][-1087.859,3480.882,3381.327,7095.069,-187500.016,-187500.016,-187500.016,-187500.016][-1068.793,3498.160,3378.265,7024.237,-187500.016,-187500.016,-187500.016,-187500.016][-1112.759,3464.252,3394.805,7100.993,-187500.016,-187500.016,-187500.016,-187500.016][-1124.159,3443.733,3331.304,7121.623,-187500.016,-187500.016,-187500.016,-187500.016][-1094.565,3478.937,3360.138,7121.422,-187500.016,-187500.016,-187500.016,-187500.016][-1080.573,3479.652,3344.827,7072.829,-187500.016,-187500.016,-187500.016,-187500.016][-1065.038,3504.418,3364.630,7018.961,-187500.016,-187500.016,-187500.016,-187500.016][-1097.225,3479.742,3385.104,7108.950,-187500.016,-187500.016,-187500.016,-187500.016][-1096.711,3478.557,3388.837,7133.514,-187500.016,-187500.016,-187500.016,-187500.016][-1099.125,3472.768,3398.896,7022.381,-187500.016,-187500.016,-187500.016,-187500.016][-1082.696,3485.263,3339.999,7020.973,-187500.016,-187500.016,-187500.016,-187500.016][-1085.579,3491.030,3364.362,7135.995,-187500.016,-187500.016,-187500.016,-187500.016][-1087.368,3482.066,3376.969,7175.312,-187500.016,-187500.016,-187500.016,-187500.016][-1095.459,3472.835,3345.788,7052.444,-187500.016,-187500.016,-187500.016,-187500.016][-1088.776,3475.160,3349.856,7025.734,-187500.016,-187500.016,-187500.016,-187500.016][-1079.790,3486.201,3391.586,7064.626,-187500.016,-187500.016,-187500.016,-187500.016][-1128.785,3455.155,3410.206,7112.884,-187500.016,-187500.016,-187500.016,-187500.016][-1108.445,3467.404,3364.653,7074.751,-187500.016,-187500.016,-187500.016,-187500.016][-1067.005,3497.400,3332.421,7029.467,-187500.016,-187500.016,-187500.016,-187500.016][-1067.229,3500.328,3374.465,7074.863,-187500.016,-187500.016,-187500.016,-187500.016][-1082.383,3483.832,3384.278,7168.428,-187500.016,-187500.016,-187500.016,-187500.016][-1111.351,3466.554,3380.388,7055.842,-187500.016,-187500.016,-187500.016,-187500.016][-1074.962,3499.769,3393.732,7023.119,-187500.016,-187500.016,-187500.016,-187500.016][-1077.220,3490.918,3366.016,7093.974,-187500.016,-187500.016,-187500.016,-187500.016][-1096.130,3468.856,3382.445,7156.537,-187500.016,-187500.016,-187500.016,-187500.016][-1089.759,3475.473,3400.259,7156.380,-187500.016,-187500.016,-187500.016,-187500.016][-1086.049,3482.424,3396.996,7039.793,-187500.016,-187500.016,-187500.016,-187500.016][-1090.184,3482.647,3366.240,7051.260,-187500.016,-187500.016,-187500.016,-187500.016][-1122.996,3443.063,3333.338,7106.268,-187500.016,-187500.016,-187500.016,-187500.016][-1113.094,3451.757,3320.754,7092.141,-18750']
INDEX_b'1.2037808895111084'___FLEX_[b'\x8c&']___EMG_[b'0.016,-187500.016,-187500.016,-187500.016][-1102.991,3469.460,3358.841,6995.917,-187500.016,-187500.016,-187500.016,-187500.016][-1065.776,3504.575,3400.058,7033.289,-187500.016,-187500.016,-187500.016,-187500.016][-1065.821,3506.050,3405.646,7175.424,-187500.016,-187500.016,-187500.016,-187500.016][-1085.043,3484.346,3391.184,7189.438,-187500.016,-187500.016,-187500.016,-187500.016][-1097.292,3471.248,3346.168,7059.709,-187500.016,-187500.016,-187500.016,-187500.016][-1082.227,3482.960,3349.945,7008.054,-187500.016,-187500.016,-187500.016,-187500.016][-1091.056,3480.927,3405.333,7116.371,-187500.016,-187500.016,-187500.016,-187500.016][-1091.972,3485.844,3409.624,7158.794,-187500.016,-187500.016,-187500.016,-187500.016][-1087.837,3488.861,3341.317,7019.900,-187500.016,-187500.016,-187500.016,-187500.016][-1076.795,3498.562,3378.936,7009.373,-187500.016,-187500.016,-187500.016,-187500.016][-1088.820,3479.809,3432.647,7130.631,-187500.016,-187500.016,-187500.016,-187500.016][-1091.972,3478.065,3402.919,7140.220,-187500.016,-187500.016,-187500.016,-187500.016][-1094.364,3470.220,3359.154,7055.015,-187500.016,-187500.016,-187500.016,-187500.016][-1093.693,3478.624,3305.175,6994.129,-187500.016,-187500.016,-187500.016,-187500.016][-1078.293,3494.293,3375.694,7070.773,-187500.016,-187500.016,-187500.016,-187500.016][-1083.948,3478.512,3391.698,7164.271,-187500.016,-187500.016,-187500.016,-187500.016][-1085.043,3479.652,3382.825,7080.876,-187500.016,-187500.016,-187500.016,-187500.016][-1119.956,3456.943,3343.977,6968.581,-187500.016,-187500.016,-187500.016,-187500.016][-1142.778,3422.901,3341.988,7046.365,-187500.016,-187500.016,-187500.016,-187500.016][-1061.194,3492.505,3413.201,7222.139,-187500.016,-187500.016,-187500.016,-187500.016][-1064.636,3500.842,3396.839,7137.716,-187500.016,-187500.016,-187500.016,-187500.016][-1103.550,3465.437,3353.969,7030.138,-187500.016,-187500.016,-187500.016,-187500.016][-1099.773,3465.772,3335.193,7013.776,-187500.016,-187500.016,-187500.016,-187500.016][-1071.587,3492.013,3408.507,7147.708,-187500.016,-187500.016,-187500.016,-187500.016][-1089.916,3478.512,3386.177,7098.288,-187500.016,-187500.016,-187500.016,-187500.016][-1070.783,3500.797,3391.475,7030.205,-187500.016,-187500.016,-187500.016,-187500.016][-1072.414,3495.165,3396.258,7031.881,-187500.016,-187500.016,-187500.016,-187500.016][-1069.956,3489.800,3481.865,7174.440,-187500.016,-187500.016,-187500.016,-187500.016][-1094.878,3465.459,3404.081,7171.981,-187500.016,-187500.016,-187500.016,-187500.016][-1085.423,3479.272,3327.526,7051.014,-187500.016,-187500.016,-187500.016,-187500.016][-1081.534,3489.845,3348.247,6998.085,-187500.016,-187500.016,-187500.016,-187500.016][-1084.931,3484.860,3393.308,7086.464,-187500.016,-187500.016,-187500.016,-187500.016][-1101.427,3462.598,3397.018,7155.441,-187500.016,-187500.016,-187500.016,-187500.016][-1093.291,3467.180,3375.359,7088.319,-187500.016,-187500.016,-187500.016,-187500.016][-1088.776,3476.992,3354.952,6971.934,-187500.016,-187500.016,-187500.016,-187500.016][-1120.716,3449.299,3367.022,7034.094,-187500.016,-187500.016,-187500.016,-187500.016][-1052.074,3511.235,3426.388,7186.488,-187500.016,-187500.016,-187500.016,-187500.016][-1063.429,3488.615,3400.416,7090.934,-187500.016,-187500.016,-187500.016,-187500.016][-1071.073,3485.799,3363.423,7027.455,-187500.016,-187500.016,-187500.016,-187500.016][-1103.103,3453.076,3349.409,7135.079,-187500.016,-187500.016,-187500.016,-187500.016][-1141.101,3424.376,3357.031,7086.799,-187500.016,-187500.016,-187500.016,-187500.016][-1100.063,3460.162,3398.404,7064.291,-187500.016,-187500.016,-187500.016,-187500.016][-1033.746,3530.100,3408.753,7065.185,-187500.016,-187500.016,-187500.016,-187500.016][-1067.542,3496.103,3399.745,7103.630,-187500.016,-187500.016,-187500.016,-187500.016][-1070.917,3487.677,3415.190,7161.566,-187500.016,-187500.016,-187500.016,-187500.016][-1073.934,3486.313,3384.278,7107.095,-187500.016,-187500.016,-187500.016,-187500.016][-1068.190,3490.672,3368.989,7000.611,-187500.016,-187500.016,-187500.016,-187500.016][-1086.921,3', b'476.098,3376.320,7061.854,-187500.016,-187500.016,-187500.016,-187500.016][-1116.201,3456.183,3399.901,7133.827,-187500.016,-187500.016,-187500.016,-187500.016][-1119.979,3452.137,3412.754,7099.919,-187500.016,-187500.016,-187500.016,-187500.016][-1074.359,3483.653,3368.631,7047.549,-187500.016,-187500.016,-187500.016,-187500.016][-1054.958,3496.014,3328.532,7018.023,-187500.016,-187500.016,-187500.016,-187500.016][-1085.781,3474.266,3391.989,7119.276,-187500.016,-187500.016,-187500.016,-187500.016][-1102.924,3465.146,3422.454,7133.358,-187500.016,-187500.016,-187500.016,-187500.016][-1074.605,3485.620,3363.669,7031.099,-187500.016,-187500.016,-187500.016,-187500.016][-1061.574,3497.243,3399.432,7044.197,-187500.016,-187500.016,-187500.016,-187500.016][-1106.747,3464.699,3396.102,7100.635,-187500.016,-187500.016,-187500.016,-187500.016][-1084.797,3468.186,3395.409,7166.059,-187500.016,-187500.016,-187500.016,-187500.016][-1053.482,3500.954,3409.624,7084.296,-187500.016,-187500.016,-187500.016,-187500.016][-1072.258,3496.394,3382.579,7025.891,-187500.016,-187500.016,-187500.016,-187500.016][-1080.081,3481.038,3390.000,7141.494,-187500.016,-187500.016,-187500.016,-187500.016][-1080.617,3476.724,3439.933,7178.419,-187500.016,-187500.016,-187500.016,-187500.016][-1092.330,3461.235,3358.528,7024.304,-187500.016,-187500.016,-187500.016,-187500.016][-1077.533,3483.363,3366.351,6989.524,-187500.016,-187500.016,-187500.016,-187500.016][-1063.049,3493.041,3398.761,7094.667,-187500.016,-187500.016,-187500.016,-187500.016][-1080.349,3478.110,3414.296,7177.950,-187500.016,-187500.016,-187500.016,-187500.016][-1078.539,3481.821,3359.937,7057.004,-187500.016,-187500.016,-187500.016,-187500.016][-1065.664,3491.789,3358.975,7009.663,-187500.016,-187500.016,-187500.016,-187500.016][-1067.676,3485.956,3372.968,7067.353,-187500.016,-187500.016,-187500.016,-187500.016][-1081.355,3474.467,3424.891,7155.531,-187500.016,-187500.016,-187500.016,-187500.016][-1117.118,3442.392,3393.911,7096.589,-187500.016,-187500.016,-187500.016,-187500.016][-1088.105,3462.956,3367.111,7019.342,-187500.016,-187500.016,-187500.016,-187500.016][-1080.260,3482.357,3391.967,7087.961,-187500.016,-187500.016,-187500.016,-187500.016][-1036.227,3518.008,3465.683,7177.882,-187500.016,-187500.016,-187500.016,-187500.016][-1067.452,3491.543,3396.191,7117.891,-187500.016,-187500.016,-187500.016,-187500.016][-1064.301,3497.623,3357.254,7012.502,-187500.016,-187500.016,-187500.016,-187500.016][-1050.063,3504.619,3386.781,7039.816,-187500.016,-187500.016,-187500.016,-187500.016][-1089.916,3464.967,3409.557,7093.862,-187500.016,-187500.016,-187500.016,-187500.016][-1077.510,3480.569,3417.224,7138.387,-187500.016,-187500.016,-187500.016,-187500.016][-1081.288,3477.820,3372.453,7039.972,-187500.016,-187500.016,-187500.016,-187500.016][-1049.772,3508.911,3383.786,7052.735,-187500.016,-187500.016,-187500.016,-187500.016][-1060.277,3496.573,3409.312,7184.164,-187500.016,-187500.016,-187500.016,-187500.016][-1075.521,3480.256,3418.230,7151.284,-187500.016,-187500.016,-187500.016,-187500.016][-1068.637,3483.139,3373.973,7073.276,-187500.016,-187500.016,-187500.016,-187500.016][-1062.580,3491.231,3350.146,7005.886,-187500.016,-187500.016,-187500.016,-187500.016][-1090.586,3456.295,3354.751,7089.392,-187500.016,-187500.016,-187500.016,-187500.016][-1080.081,3475.361,3427.148,7161.812,-187500.016,-187500.016,-187500.016,-187500.016][-1071.297,3492.102,3409.937,7063.128,-187500.016,-187500.016,-187500.016,-187500.016][-1054.443,3511.414,3430.322,7004.791,-187500.016,-187500.016,-187500.016,-187500.016][-1086.831,3472.813,3417.895,7053.294,-187500.016,-187500.016,-187500.016,-187500.016][-1057.774,3490.471,3400.974,7188.053,-187500.016,-187500.016,-187500.016,-187500.016][-1077.756,3481.753,3408.216,7098.221,-187500.016,-187500.016,-187500.016,-187500.016][-1084.484,3475.003,3349.476,6997.124,-187500.016,-187500.016,-187500.016,-187500.016][-1093.045,3467.649,3390.000,7036.731,-187500.016,-187500.016,-187500.016,-187500.016][-1071.855,3484.726,3434.189,7154.212,-187500.016,-187500.016,-187']
INDEX_b'1.6038992404937744'___FLEX_[b'326,387,378,376,386\n326,388,378,376,387\n326,388,378,376,387\n326,387,378,376,387\n326,388,378,376,386\n326,387,379,376,386\n326,387,378,376,387\n326,387,378,376,386\n325,388,378,376,386\n326,388,378,376,387\n326,387,378,376,386\n326,387,378,376,387\n325,388,378,376,386\n326,387,378,375,386\n326,387,379,376,387\n326,387,378,376,386\n326,387,378,376,386\n326,387,378,376,387\n326,387,378,376,386\n326,386,379,376,387\n325,387,378,376,386\n326,388,378,376,386\n326,388,378,376,386\n326,387,378,376,386\n326,387,378,375,386\n326,388,378,376,386\n326,388,378,376,387\n326,388,379,376,386\n326,387,379,376,387\n326,387,379,376,386\n326,387,379,376,386\n325,387,378,376,386\n325,387,378,375,386\n325,387,378,376,387\n326,387,378,376,387\n326,387,378,376,386\n326,387,379,376,386\n326,387,378,376,387\n326,387,379,376,387\n326,387,379,376,386\n326,387,380,376,387\n326,387,378,376,386\n326,387,378,376,386\n326,387,379,376,386\n325,387,378,376,387\n326,387,378,376,386\n326,387,378,376,386\n326,387,378,376,386\n326,388,379,376,386\n326,387,378,376,387\n']___EMG_[b'500.016,-187500.016][-1036.227,3514.164,3430.009,7161.119,-187500.016,-187500.016,-187500.016,-187500.016][-1060.993,3496.394,3386.088,7017.688,-187500.016,-187500.016,-187500.016,-187500.016][-1068.950,3482.916,3373.012,7087.313,-187500.016,-187500.016,-187500.016,-187500.016][-1065.128,3485.620,3427.416,7186.510,-187500.016,-187500.016,-187500.016,-187500.016][-1064.927,3481.821,3391.117,7122.808,-187500.016,-187500.016,-187500.016,-187500.016][-1073.286,3480.457,3375.761,7014.849,-187500.016,-187500.016,-187500.016,-187500.016][-1067.609,3491.856,3373.057,6979.511,-187500.016,-187500.016,-187500.016,-187500.016][-1072.794,3491.432,3420.510,7148.535,-187500.016,-187500.016,-187500.016,-187500.016][-1075.499,3483.899,3409.289,7148.289,-187500.016,-187500.016,-187500.016,-187500.016][-1050.979,3507.816,3393.710,7027.031,-187500.016,-187500.016,-187500.016,-187500.016][-1078.092,3488.235,3398.829,7014.089,-187500.016,-187500.016,-187500.016,-187500.016][-1095.347,3468.119,3416.777,7110.112,-187500.016,-187500.016,-187500.016,-187500.016][-1083.970,3470.399,3401.444,7143.483,-187500.016,-187500.016,-187500.016,-187500.016][-1110.792,3440.805,3355.466,7035.681,-187500.016,-187500.016,-187500.016,-187500.016][-1071.967,3485.710,3398.761,7026.762,-187500.016,-187500.016,-187500.016,-187500.016][-1041.904,3510.833,3406.182,7135.593,-187500.016,-187500.016,-187500.016,-187500.016][-1073.375,3481.552,3432.088,7157.386,-187500.016,-187500.016,-187500.016,-187500.016][-1062.580,3495.231,3429.674,7080.272,-187500.016,-187500.016,-187500.016,-187500.016][-1066.156,3487.855,3367.961,6974.415,-187500.016,-187500.016,-187500.016,-187500.016][-1076.706,3482.826,3420.107,7090.733,-187500.016,-187500.016,-187500.016,-187500.016][-1070.604,3483.676,3410.943,7175.111,-187500.016,-187500.016,-187500.016,-187500.016][-1057.327,3488.615,3381.238,7108.614,-187500.016,-187500.016,-187500.016,-187500.016][-1051.784,3495.991,3373.236,7046.946,-187500.016,-187500.016,-187500.016,-187500.016][-1056.522,3498.785,3379.159,7068.426,-187500.016,-187500.016,-187500.016,-187500.016][-1077.488,3475.562,3402.360,7163.197,-187500.016,-187500.016,-187500.016,-187500.016][-1081.467,3483.028,3415.749,7100.031,-187500.016,-187500.016,-187500.016,-187500.016][-1072.750,3489.241,3395.476,6981.522,-187500.016,-187500.016,-187500.016,-187500.016][-1087.368,3468.499,3354.483,7019.923,-187500.016,-187500.016,-187500.016,-187500.016][-1058.064,3495.231,3429.674,7159.442,-187500.016,-187500.016,-187500.016,-187500.016][-1076.952,3480.703,3413.581,7119.589,-187500.016,-187500.016,-187500.016,-187500.016][-1075.924,3478.915,3384.501,7034.742,-187500.016,-187500.016,-187500.016,-187500.016][-1047.269,3505.938,3382.378,7037.469,-187500.016,-187500.016,-187500.016,-187500.016][-1073.979,3482.402,3414.765,7163.711,-187500.016,-187500.016,-187500.016,-187500.016][-1086.541,3461.726,3414.408,7137.090,-187500.016,-187500.016,-187500.016,-187500.016][-1067.206,3489.599,3379.539,7015.408,-187500.016,-187500.016,-187500.016,-187500.016][-1066.648,3487.990,3415.257,6994.844,-187500.016,-187500.016,-187500.016,-187500.016][-1044.497,3501.199,3495.835,7127.882,-187500.016,-187500.016,-187500.016,-187500.016][-1079.634,3471.539,3398.873,7172.429,-187500.016,-187500.016,-187500.016,-187500.016][-1070.358,3489.532,3363.446,7060.424,-187500.016,-187500.016,-187500.016,-187500.016][-1058.623,3489.688,3372.610,7014.625,-187500.016,-187500.016,-187500.016,-187500.016][-1059.741,3482.044,3388.211,7116.058,-187500.016,-187500.016,-187500.016,-187500.016][-1071.140,3473.193,3402.583,7169.143,-187500.016,-187500.016,-187500.016,-187500.016][-1049.548,3501.982,3412.865,7066.638,-187500.016,-187500.016,-187500.016,-187500.016][-1056.321,3502.921,3417.224,7018.492,-187500.016,-187500.016,-187500.016,-187500.016][-1081.780,3463.135,3378.287,7091.739,-187500.016,-187500.016,-187500.016,-187500.016][-1069.665,3473.103,3388.323,7154.480,-187500.016,-187500.016,-187500.016,-187500.016][-1070.961,3470.734,3362.015,7089.928,-187500.016,-187500.016,-187500.016,-187500.016][-1040.563,3510.610,3408.842,7041.', b'671,-187500.016,-187500.016,-187500.016,-187500.016][-1073.532,3483.162,3420.130,7077.881,-187500.016,-187500.016,-187500.016,-187500.016][-1068.123,3487.855,3454.440,7162.840,-187500.016,-187500.016,-187500.016,-187500.016][-1075.164,3474.780,3402.919,7116.594,-187500.016,-187500.016,-187500.016,-187500.016][-1074.135,3472.634,3362.440,7029.802,-187500.016,-187500.016,-187500.016,-187500.016][-1054.466,3487.878,3405.601,7047.304,-187500.016,-187500.016,-187500.016,-187500.016][-1075.991,3478.959,3477.775,7093.572,-187500.016,-187500.016,-187500.016,-187500.016][-1068.212,3477.596,3421.158,7108.883,-187500.016,-187500.016,-187500.016,-187500.016][-1051.113,3499.121,3396.549,7038.966,-187500.016,-187500.016,-187500.016,-187500.016][-1044.028,3500.373,3352.739,7042.073,-187500.016,-187500.016,-187500.016,-187500.016][-1077.622,3465.839,3384.434,7123.166,-187500.016,-187500.016,-187500.016,-187500.016][-1076.683,3474.266,3426.723,7147.819,-187500.016,-187500.016,-187500.016,-187500.016][-1041.748,3499.814,3399.164,7069.655,-187500.016,-187500.016,-187500.016,-187500.016][-1042.619,3494.203,3392.883,7068.828,-187500.016,-187500.016,-187500.016,-187500.016][-1067.497,3480.010,3439.956,7136.018,-187500.016,-187500.016,-187500.016,-187500.016][-1068.458,3477.216,3436.312,7153.608,-187500.016,-187500.016,-187500.016,-187500.016][-1057.349,3488.302,3402.807,7060.402,-187500.016,-187500.016,-187500.016,-187500.016][-1058.400,3482.424,3351.823,7023.834,-187500.016,-187500.016,-187500.016,-187500.016][-1078.069,3469.840,3381.506,7075.243,-187500.016,-187500.016,-187500.016,-187500.016][-1050.957,3497.735,3466.063,7135.660,-187500.016,-187500.016,-187500.016,-187500.016][-1054.935,3487.297,3417.872,7115.298,-187500.016,-187500.016,-187500.016,-187500.016][-1060.076,3480.927,3382.981,7018.917,-187500.016,-187500.016,-187500.016,-187500.016][-1076.773,3466.353,3417.045,7081.323,-187500.016,-187500.016,-187500.016,-187500.016][-1070.224,3468.052,3415.637,7182.666,-187500.016,-187500.016,-187500.016,-187500.016][-1042.932,3499.009,3396.169,7125.490,-187500.016,-187500.016,-187500.016,-187500.016][-1046.196,3505.625,3403.232,6988.362,-187500.016,-187500.016,-187500.016,-187500.016][-1070.514,3483.765,3389.150,7051.930,-187500.016,-187500.016,-187500.016,-187500.016][-1099.415,3444.784,3370.352,7108.838,-187500.016,-187500.016,-187500.016,-187500.016][-1082.093,3466.957,3413.603,7084.676,-187500.016,-187500.016,-187500.016,-187500.016][-1055.539,3501.199,3407.389,7032.507,-187500.016,-187500.016,-187500.016,-187500.016][-1068.659,3484.480,3395.677,7052.735,-187500.016,-187500.016,-187500.016,-187500.016][-1049.213,3490.247,3442.370,7234.589,-187500.016,-187500.016,-187500.016,-187500.016][-1070.246,3478.736,3434.010,7116.438,-187500.016,-187500.016,-187500.016,-187500.016][-1079.187,3466.912,3369.280,6989.971,-187500.016,-187500.016,-187500.016,-187500.016][-1083.277,3465.213,3380.902,7027.143,-187500.016,-187500.016,-187500.016,-187500.016][-1043.514,3498.719,3443.912,7213.511,-187500.016,-187500.016,-187500.016,-187500.016][-1059.875,3478.445,3401.176,7161.275,-187500.016,-187500.016,-187500.016,-187500.016][-1058.288,3495.097,3379.762,6991.760,-187500.016,-187500.016,-187500.016,-187500.016][-1051.851,3498.137,3392.995,7000.007,-187500.016,-187500.016,-187500.016,-187500.016][-1047.492,3486.738,3419.951,7135.816,-187500.016,-187500.016,-187500.016,-187500.016][-1061.618,3477.887,3416.598,7144.735,-187500.016,-187500.016,-187500.016,-187500.016][-1071.006,3471.405,3395.655,7031.501,-187500.016,-187500.016,-187500.016,-187500.016][-1071.744,3483.922,3401.019,6983.646,-187500.016,-187500.016,-187500.016,-187500.016][-1058.132,3495.299,3424.779,7120.886,-187500.016,-187500.016,-187500.016,-187500.016][-1101.740,3446.035,3399.231,7159.621,-187500.016,-187500.016,-187500.016,-187500.016][-1085.401,3464.207,3372.297,7074.461,-187500.016,-187500.016,-187500.016,-187500.016][-1051.560,3502.518,3412.821,7007.719,-187500.016,-187500.016,-187500.016,-187500.016][-1074.135,3481.306,3412.955,7062.950,-187500.016,-187500.016,-187500.016,-187500.016][-']
INDEX_b'2.0047736167907715'___FLEX_[b'326,387,378,376,387\n326,387,378,375,386\n326,387,379,376,386\n326,387,378,376,386\n325,387,378,376,386\n326,387,378,376,386\n326,387,379,375,387\n325,387,378,375,386\n326,387,379,376,386\n326,387,379,376,387\n324,387,379,376,387\n326,387,379,376,387\n326,387,378,376,386\n326,387,378,376,386\n326,388,378,376,386\n325,387,378,376,387\n325,388,379,376,387\n326,388,378,376,387\n326,387,379,376,387\n326,387,378,376,386\n325,387,378,374,386\n326,387,378,376,386\n326,387,379,376,386\n326,387,378,377,385\n326,387,378,376,387\n326,387,379,376,386\n325,387,378,376,386\n326,387,378,376,386\n326,387,379,376,388\n326,388,378,376,386\n324,387,378,376,386\n326,387,379,376,386\n326,387,378,376,386\n326,387,378,376,386\n326,387,378,376,386\n323,387,378,377,385\n326,387,379,377,386\n326,386,380,376,387\n326,387,379,374,386\n326,387,379,376,384\n326,387,378,377,387\n326,387,378,377,387\n326,387,378,376,387\n326,387,379,376,386\n326,387,377,376,387\n326,387,378,376,387\n326,388,379,377,386\n326,387,378,375,386\n326,387,378,376,387\n327,387,378,376,386\n', b'326,387,379,376,386\n326,388,378,376,386\n326,387,378,376,386\n326,388,379,376,386\n325,387,378,376,387\n326,387,378,376,387\n326,387,379,375,387\n326,387,378,376,386\n326,387,379,376,386\n327,388,378,376,386\n326,387,377,376,386\n325,387,378,376,386\n325,387,379,376,387\n326,387,378,376,385\n327,387,378,376,386\n326,387,378,376,386\n326,387,378,376,386\n326,387,378,376,386\n326,387,378,376,386\n326,387,379,376,386\n325,387,378,376,387\n327,388,378,376,386\n326,387,380,376,386\n326,388,378,376,386\n326,387,378,376,387\n326,386,379,376,386\n326,387,378,376,386\n326,388,378,376,387\n326,387,378,376,387\n326,388,378,376,387\n326,387,378,376,387\n326,387,379,376,387\n326,388,379,376,387\n326,388,378,376,387\n326,387,378,376,385\n325,387,378,376,386\n325,387,379,376,386\n326,388,378,376,386\n325,388,379,376,387\n326,386,378,377,387\n326,388,378,376,387\n326,388,378,376,386\n326,387,379,376,387\n326,387,379,376,386\n326,388,379,376,387\n326,387,378,377,386\n326,387,378,376,386\n326,387,378,376,387\n326,387,378,376,386\n326,387,378,376,387\n', b'326,387,378,376,386\n326,387,378,376,387\n326,387,378,376,387\n326,387,379,376,386\n326,387,378,376,386\n326,387,378,376,387\n326,387,379,376,387\n326,387,378,376,386\n326,387,378,376,386\n326,387,378,376,386\n326,387,378,375,386\n327,387,378,376,387\n325,388,378,376,387\n328,387,378,376,386\n326,388,378,376,387\n326,387,377,377,386\n326,387,378,376,387\n327,387,378,376,386\n326,388,378,374,387\n326,387,378,376,387\n326,388,378,376,387\n326,387,378,376,386\n326,387,378,376,386\n326,387,379,376,387\n325,387,379,376,385\n326,387,378,376,386\n326,388,379,376,386\n326,388,378,376,386\n325,387,378,376,387\n327,387,378,376,386\n326,387,378,376,386\n326,387,378,376,387\n325,386,378,376,387\n326,388,378,376,387\n326,387,378,376,387\n326,387,378,376,387\n326,387,378,375,386\n327,387,378,376,387\n326,387,378,377,387\n326,386,379,376,386\n326,387,379,376,387\n326,387,378,376,387\n326,387,379,376,386\n326,388,378,376,387\n326,387,379,376,386\n326,387,379,376,387\n326,387,378,376,386\n326,387,378,377,387\n326,388,378,376,386\n326,387,378,377,386\n', b'326,387,378,376,386\n326,387,378,377,386\n326,388,378,376,387\n326,387,378,376,386\n327,387,379,377,387\n327,387,378,376,387\n326,387,379,376,387\n326,387,378,376,386\n326,388,378,376,386\n326,387,378,376,387\n326,387,379,376,387\n326,387,378,376,386\n325,388,378,376,387\n326,387,378,376,387\n326,388,378,376,386\n326,387,378,376,386\n325,387,378,376,387\n326,388,378,376,386\n326,388,378,376,387\n326,387,378,377,387\n326,387,378,376,387\n326,387,379,376,386\n325,388,379,377,387\n326,388,378,376,387\n325,387,378,376,386\n326,387,379,376,386\n325,388,378,376,387\n326,387,378,376,385\n326,388,379,376,387\n326,387,378,376,386\n326,388,378,377,387\n326,387,378,376,386\n326,387,378,376,386\n327,388,378,376,387\n325,387,378,375,386\n325,388,378,375,387\n326,388,379,376,387\n326,388,379,376,386\n326,388,378,376,387\n326,388,379,377,386\n325,388,379,376,386\n326,388,379,377,387\n326,389,378,376,387\n325,387,379,376,387\n326,388,379,376,387\n326,388,378,376,386\n325,389,378,376,387\n326,388,379,376,387\n326,388,379,376,385\n325,388,378,376,386\n', b'326,389,378,376,386\n326,388,379,377,386\n325,387,378,376,386\n326,388,379,377,386\n326,388,378,376,387\n326,388,376,376,386\n325,389,379,377,386\n325,389,378,376,386\n326,389,379,377,386\n325,388,379,376,387\n326,389,378,377,386\n326,389,378,377,387\n325,388,378,376,387\n325,389,378,376,387\n325,389,379,376,387\n325,389,379,376,386\n324,389,380,376,387\n325,389,379,376,386\n324,389,378,377,387\n325,389,379,376,386\n324,390,378,376,387\n324,389,378,377,386\n323,390,379,376,387\n323,389,379,377,386\n323,389,379,376,386\n323,389,379,376,387\n323,389,378,376,386\n323,389,378,376,386\n322,389,379,377,387\n321,389,378,376,386\n321,389,379,376,386\n321,389,378,376,387\n321,390,379,376,386\n321,389,378,377,386\n320,389,379,376,387\n320,390,378,377,386\n320,389,378,376,387\n320,389,378,376,386\n319,390,379,376,387\n319,390,378,376,386\n319,390,379,376,387\n319,390,379,377,387\n318,390,378,376,387\n318,390,379,376,386\n318,390,377,376,386\n317,390,379,376,387\n316,390,379,376,386\n317,390,379,376,386\n316,390,378,376,386\n316,391,379,375,387\n']___EMG_[b'1076.527,3470.622,3436.201,7187.717,-187500.016,-187500.016,-187500.016,-187500.016][-1044.788,3492.214,3366.664,7143.707,-187500.016,-187500.016,-187500.016,-187500.016][-1053.147,3490.068,3370.174,6998.354,-187500.016,-187500.016,-187500.016,-187500.016][-1064.591,3488.593,3403.299,7060.268,-187500.016,-187500.016,-187500.016,-187500.016][-1057.528,3484.659,3431.216,7150.993,-187500.016,-187500.016,-187500.016,-187500.016][-1086.384,3455.893,3390.961,7106.849,-187500.016,-187500.016,-187500.016,-187500.016][-1050.644,3498.428,3397.867,7016.816,-187500.016,-187500.016,-187500.016,-187500.016][-1042.396,3503.680,3393.240,7045.583,-187500.016,-187500.016,-187500.016,-187500.016][-1068.682,3479.384,3414.296,7156.157,-187500.016,-187500.016,-187500.016,-187500.016][-1067.005,3473.260,3412.284,7180.811,-187500.016,-187500.016,-187500.016,-187500.016][-1090.854,3460.810,3372.990,7020.035,-187500.016,-187500.016,-187500.016,-187500.016][-1065.999,3491.074,3411.278,6975.197,-187500.016,-187500.016,-187500.016,-187500.016][-1051.203,3498.473,3467.828,7119.522,-187500.016,-187500.016,-187500.016,-187500.016][-1080.662,3465.325,3403.880,7181.414,-187500.016,-187500.016,-187500.016,-187500.016][-1074.024,3467.113,3369.190,7072.092,-187500.016,-187500.016,-187500.016,-187500.016][-1061.015,3486.492,3374.465,7010.938,-187500.016,-187500.016,-187500.016,-187500.016][-1061.507,3497.064,3432.759,7074.953,-187500.016,-187500.016,-187500.016,-187500.016][-1069.062,3480.815,3428.556,7152.401,-187500.016,-187500.016,-187500.016,-187500.016][-1043.983,3497.511,3432.535,7112.459,-187500.016,-187500.016,-187500.016,-187500.016][-1046.240,3491.164,3379.606,7008.367,-187500.016,-187500.016,-187500.016,-187500.016][-1056.053,3495.478,3398.292,7086.799,-187500.016,-187500.016,-187500.016,-187500.016][-1071.319,3481.016,3420.286,7141.472,-187500.016,-187500.016,-187500.016,-187500.016][-1077.265,3476.344,3423.147,7063.844,-187500.016,-187500.016,-187500.016,-187500.016][-1057.886,3485.710,3378.220,6997.906,-187500.016,-187500.016,-187500.016,-187500.016][-1046.352,3497.310,3385.686,7092.700,-187500.016,-187500.016,-187500.016,-187500.016][-1073.577,3481.552,3432.982,7198.871,-187500.016,-187500.016,-187500.016,-187500.016][-1081.891,3470.689,3385.239,7075.847,-187500.016,-187500.016,-187500.016,-187500.016][-1037.814,3513.962,3401.064,6997.012,-187500.016,-187500.016,-187500.016,-187500.016][-1044.139,3505.916,3435.865,7047.907,-187500.016,-187500.016,-187500.016,-187500.016][-1063.518,3482.245,3437.542,7159.554,-187500.016,-187500.016,-187500.016,-187500.016][-1077.108,3472.097,3397.420,7101.663,-187500.016,-187500.016,-187500.016,-187500.016][-1091.145,3453.814,3373.839,7049.047,-187500.016,-187500.016,-187500.016,-187500.016][-1064.077,3481.374,3382.400,7036.798,-187500.016,-187500.016,-187500.016,-187500.016][-1055.874,3488.392,3433.943,7115.253,-187500.016,-187500.016,-187500.016,-187500.016][-1073.867,3468.231,3414.005,7136.912,-187500.016,-187500.016,-187500.016,-187500.016][-1087.994,3468.208,3408.015,7022.918,-187500.016,-187500.016,-187500.016,-187500.016][-1069.240,3485.911,3383.071,7030.651,-187500.016,-187500.016,-187500.016,-187500.016][-1037.993,3505.133,3439.397,7167.355,-187500.016,-187500.016,-187500.016,-187500.016][-1064.099,3480.725,3410.116,7154.882,-187500.016,-187500.016,-187500.016,-187500.016][-1057.506,3491.655,3381.282,7057.228,-187500.016,-187500.016,-187500.016,-187500.016][-1060.836,3490.560,3389.754,6995.917,-187500.016,-187500.016,-187500.016,-187500.016][-1066.603,3481.418,3442.571,7072.293,-187500.016,-187500.016,-187500.016,-187500.016][-1061.663,3485.531,3399.007,7148.535,-187500.016,-187500.016,-187500.016,-187500.016][-1058.869,3486.269,3392.659,7048.399,-187500.016,-187500.016,-187500.016,-187500.016][-1035.668,3506.296,3400.684,7001.080,-187500.016,-187500.016,-187500.016,-187500.016][-1056.232,3498.361,3417.135,7084.430,-187500.016,-187500.016,-187500.016,-187500.016][-1073.353,3482.826,3447.488,7144.601,-187500.016,-187500.016,-187500.016,-187500.016][-1056.276,3491.387,3409.133,7080.138,-187500.016,-18750', b'0.016,-187500.016,-187500.016][-1055.583,3491.096,3385.865,7019.498,-187500.016,-187500.016,-187500.016,-187500.016][-1090.005,3457.390,3385.328,7082.575,-187500.016,-187500.016,-187500.016,-187500.016][-1055.673,3489.644,3466.107,7135.325,-187500.016,-187500.016,-187500.016,-187500.016][-1044.028,3504.753,3468.856,7098.534,-187500.016,-187500.016,-187500.016,-187500.016][-1057.550,3498.338,3386.557,7027.143,-187500.016,-187500.016,-187500.016,-187500.016][-1071.520,3483.028,3374.867,7035.502,-187500.016,-187500.016,-187500.016,-187500.016][-1071.900,3474.422,3399.566,7136.822,-187500.016,-187500.016,-187500.016,-187500.016][-1061.618,3475.562,3411.569,7149.272,-187500.016,-187500.016,-187500.016,-187500.016][-1067.676,3464.520,3323.481,7032.104,-187500.016,-187500.016,-187500.016,-187500.016][-1069.464,3491.789,3412.463,7000.924,-187500.016,-187500.016,-187500.016,-187500.016][-1085.892,3472.567,3420.353,7089.057,-187500.016,-187500.016,-187500.016,-187500.016][-1059.942,3492.259,3429.070,7133.201,-187500.016,-187500.016,-187500.016,-187500.016][-1057.774,3494.203,3411.792,7010.378,-187500.016,-187500.016,-187500.016,-187500.016][-1043.134,3504.664,3436.760,7052.802,-187500.016,-187500.016,-187500.016,-187500.016][-1080.528,3453.702,3382.690,7143.863,-187500.016,-187500.016,-187500.016,-187500.016][-1079.232,3477.015,3418.945,7127.770,-187500.016,-187500.016,-187500.016,-187500.016][-1044.095,3501.199,3403.679,7043.370,-187500.016,-187500.016,-187500.016,-187500.016][-1057.126,3493.332,3359.378,7016.548,-187500.016,-187500.016,-187500.016,-187500.016][-1043.804,3512.152,3473.595,7119.231,-187500.016,-187500.016,-187500.016,-187500.016][-1058.891,3480.859,3443.085,7164.449,-187500.016,-187500.016,-187500.016,-187500.016][-1074.024,3471.226,3354.103,7053.629,-187500.016,-187500.016,-187500.016,-187500.016][-1080.684,3465.705,3356.427,6990.352,-187500.016,-187500.016,-187500.016,-187500.016][-1033.969,3517.114,3428.132,7080.116,-187500.016,-187500.016,-187500.016,-187500.016][-1058.489,3498.249,3448.762,7171.557,-187500.016,-187500.016,-187500.016,-187500.016][-1071.900,3481.597,3408.730,7052.333,-187500.016,-187500.016,-187500.016,-187500.016][-1061.395,3490.336,3374.420,6993.995,-187500.016,-187500.016,-187500.016,-187500.016][-1082.271,3473.640,3385.417,7052.936,-187500.016,-187500.016,-187500.016,-187500.016][-1074.225,3469.125,3429.719,7219.904,-187500.016,-187500.016,-187500.016,-187500.016][-1049.615,3486.358,3426.589,7152.223,-187500.016,-187500.016,-187500.016,-187500.016][-1051.359,3496.349,3395.833,6971.375,-187500.016,-187500.016,-187500.016,-187500.016][-1057.170,3502.004,3419.906,7016.324,-187500.016,-187500.016,-187500.016,-187500.016][-1053.348,3488.571,3404.081,7152.178,-187500.016,-187500.016,-187500.016,-187500.016][-1077.130,3470.510,3430.993,7086.553,-187500.016,-187500.016,-187500.016,-187500.016][-1093.939,3458.105,3385.149,7035.502,-187500.016,-187500.016,-187500.016,-187500.016][-1070.090,3482.268,3402.517,7064.335,-187500.016,-187500.016,-187500.016,-187500.016][-1077.443,3475.540,3417.962,7107.095,-187500.016,-187500.016,-187500.016,-187500.016][-1073.599,3487.185,3398.314,7069.566,-187500.016,-187500.016,-187500.016,-187500.016][-1059.853,3501.244,3411.457,7005.215,-187500.016,-187500.016,-187500.016,-187500.016][-1055.092,3491.879,3401.108,7038.207,-187500.016,-187500.016,-187500.016,-187500.016][-1069.576,3475.897,3408.596,7168.048,-187500.016,-187500.016,-187500.016,-187500.016][-1076.348,3461.659,3394.649,7163.376,-187500.016,-187500.016,-187500.016,-187500.016][-1040.027,3520.601,3433.451,6981.701,-187500.016,-187500.016,-187500.016,-187500.016][-1061.864,3487.833,3367.022,7011.988,-187500.016,-187500.016,-187500.016,-187500.016][-1098.923,3444.806,3373.459,7137.940,-187500.016,-187500.016,-187500.016,-187500.016][-1062.959,3478.222,3391.452,7170.685,-187500.016,-187500.016,-187500.016,-187500.016][-1035.802,3510.006,3426.746,7060.871,-187500.016,-187500.016,-187500.016,-187500.016][-1054.309,3497.020,3401.019,6973.655,-187500.016,-187500.016,-187500.016,-187500.016][-1062.311,3496.438,3432']
INDEX_b'2.4048800468444824'___FLEX_[b'316,390,379,376,387\n316,390,379,376,386\n315,391,378,376,386\n315,390,379,377,387\n314,391,379,376,386\n313,391,378,376,388\n313,391,379,376,386\n314,391,378,376,386\n312,391,378,376,386\n311,389,378,376,386\n311,391,379,376,386\n311,392,379,376,386\n311,391,378,376,386\n310,391,378,376,387\n310,391,380,376,386\n309,391,379,376,388\n308,391,379,376,387\n308,391,379,376,387\n307,391,378,376,387\n307,391,379,376,387\n307,391,378,376,387\n307,391,379,376,386\n306,391,379,376,386\n305,391,379,377,386\n305,391,379,376,387\n304,391,379,376,387\n303,391,378,376,386\n303,391,378,376,387\n303,391,379,376,386\n303,391,379,377,386\n301,391,379,376,387\n301,391,378,376,386\n301,391,379,376,386\n301,391,378,376,386\n299,391,379,376,386\n299,391,376,376,386\n298,391,378,377,387\n298,392,377,376,386\n296,391,378,376,386\n297,391,379,376,387\n296,391,379,376,387\n294,391,378,376,388\n295,391,379,377,386\n294,392,378,376,386\n293,391,378,376,387\n293,391,379,376,387\n292,391,379,376,387\n291,391,379,376,387\n291,391,379,376,387\n291,391,377,376,386\n', b'289,392,379,376,386\n290,392,379,376,386\n288,391,379,376,386\n288,392,378,377,387\n288,391,379,376,389\n287,391,379,377,387\n287,391,379,376,386\n286,392,378,377,386\n285,392,379,376,386\n285,391,379,376,386\n285,392,378,377,386\n284,391,379,376,386\n284,391,379,377,387\n284,391,379,376,387\n283,392,379,376,387\n281,391,378,376,387\n282,392,379,376,386\n280,392,378,376,386\n280,392,379,376,387\n280,392,379,376,387\n279,393,379,376,387\n279,392,379,376,387\n278,392,379,376,387\n277,392,379,376,387\n277,392,379,376,386\n276,393,379,376,386\n275,393,379,376,386\n275,393,379,376,387\n273,392,379,375,386\n273,393,378,376,386\n273,393,379,376,386\n273,392,379,376,387\n272,393,378,376,385\n271,393,378,376,387\n271,394,379,376,387\n270,393,379,376,386\n269,393,379,376,387\n269,393,378,376,387\n267,393,379,376,386\n266,393,379,376,387\n266,393,379,376,387\n266,393,379,376,386\n265,394,379,376,386\n264,393,378,376,386\n264,394,379,377,387\n264,394,379,377,387\n263,393,378,376,386\n263,393,379,377,386\n262,394,379,376,387\n262,394,378,376,386\n', b'261,394,379,376,386\n261,394,378,376,386\n259,393,379,377,387\n260,393,379,376,387\n259,394,378,377,386\n259,394,379,376,386\n259,394,378,375,386\n258,394,379,377,386\n258,393,378,376,387\n258,394,379,377,386\n257,394,379,376,386\n256,393,378,376,386\n256,394,378,376,386\n256,394,378,377,387\n255,393,378,376,386\n255,394,379,377,387\n254,394,379,377,386\n253,394,378,376,386\n252,392,379,376,386\n253,393,379,377,386\n252,394,379,376,387\n252,392,378,375,386\n251,394,379,376,386\n251,394,378,376,386\n250,394,379,376,386\n251,394,378,376,386\n250,394,379,378,387\n249,394,379,376,387\n248,394,378,377,386\n249,394,379,376,386\n247,394,378,376,386\n248,393,378,377,386\n246,394,378,376,387\n247,394,378,377,386\n246,394,378,376,385\n246,394,379,376,386\n246,394,379,376,385\n244,394,378,377,386\n244,394,379,376,386\n245,394,379,376,386\n244,395,378,376,386\n244,394,380,377,386\n245,394,377,377,387\n242,395,378,376,386\n243,395,379,377,386\n242,394,378,377,386\n242,395,377,376,386\n242,395,380,377,384\n241,395,379,376,386\n241,395,378,377,386\n', b'242,395,379,377,387\n241,394,379,377,386\n240,394,378,376,386\n239,395,379,377,387\n239,395,379,377,386\n239,395,379,377,387\n238,394,378,377,386\n237,395,377,377,386\n237,395,378,377,386\n237,394,379,377,386\n236,395,379,376,386\n236,395,379,376,386\n235,394,379,377,386\n234,395,379,377,385\n234,395,379,376,386\n235,395,379,376,386\n234,395,379,376,386\n233,395,379,377,386\n233,395,379,377,386\n233,395,379,377,385\n232,395,377,377,386\n232,395,379,376,386\n230,395,379,377,386\n230,395,379,377,386\n230,395,378,377,386\n229,395,378,378,386\n229,395,379,376,386\n229,395,379,376,386\n229,394,379,377,386\n228,395,379,376,386\n227,395,379,377,386\n228,395,378,377,386\n227,395,380,377,386\n227,395,378,376,385\n227,395,379,377,386\n226,395,379,377,386\n226,395,379,376,386\n225,395,377,377,387\n225,395,379,377,385\n225,395,379,376,386\n225,395,379,376,386\n225,394,379,376,387\n223,395,379,376,386\n224,395,379,377,386\n223,395,379,377,385\n223,395,379,377,386\n223,395,379,377,386\n223,395,379,377,386\n223,395,380,376,386\n222,395,379,377,387\n', b'223,396,378,377,386\n222,395,378,377,386\n222,396,379,377,386\n222,396,379,377,386\n222,396,379,377,385\n221,395,379,376,386\n222,396,379,376,385\n222,396,380,376,386\n222,395,379,377,386\n220,395,380,376,386\n221,396,380,377,385\n220,396,379,376,386\n220,395,379,377,386\n220,395,379,377,386\n220,395,379,377,386\n218,395,379,377,386\n218,396,379,377,387\n219,395,379,376,386\n219,395,379,377,386\n219,396,380,377,386\n219,396,380,377,386\n218,396,378,376,386\n218,396,380,377,386\n218,395,379,377,385\n218,395,379,377,386\n218,395,379,377,385\n218,396,380,377,386\n217,395,380,377,386\n217,396,379,376,385\n216,396,381,377,386\n216,395,379,377,386\n216,396,379,377,385\n216,395,380,377,385\n217,396,380,377,385\n215,396,379,377,386\n216,395,379,377,385\n215,396,379,377,386\n215,395,380,377,385\n214,396,380,377,386\n215,396,380,378,386\n215,396,380,377,386\n215,395,380,378,386\n215,396,380,377,385\n215,396,380,377,385\n212,396,379,377,386\n214,396,380,377,386\n214,396,380,377,386\n213,397,380,377,386\n213,396,380,377,385\n213,397,380,377,386\n']___EMG_[b'.065,7053.070,-187500.016,-187500.016,-187500.016,-187500.016][-1086.138,3463.939,3420.264,7134.855,-187500.016,-187500.016,-187500.016,-187500.016][-1078.293,3464.096,3412.552,7064.470,-187500.016,-187500.016,-187500.016,-187500.016][-1060.367,3487.945,3374.778,6986.999,-187500.016,-187500.016,-187500.016,-187500.016][-1053.572,3489.197,3406.316,7094.130,-187500.016,-187500.016,-187500.016,-187500.016][-1064.971,3480.502,3464.364,7162.974,-187500.016,-187500.016,-187500.016,-187500.016][-1097.560,3457.345,3450.707,7053.786,-187500.016,-187500.016,-187500.016,-187500.016][-1098.789,3451.757,3356.494,7041.045,-187500.016,-187500.016,-187500.016,-187500.016][-1101.069,3447.958,3353.052,7111.431,-187500.016,-187500.016,-187500.016,-187500.016][-1048.230,3496.617,3440.514,7150.233,-187500.016,-187500.016,-187500.016,-187500.016][-1075.186,3475.473,3403.321,7031.702,-187500.016,-187500.016,-187500.016,-187500.016][-1071.476,3475.786,3414.452,7009.082,-187500.016,-187500.016,-187500.016,-187500.016][-1062.267,3488.727,3381.841,7028.081,-187500.016,-187500.016,-187500.016,-187500.016][-1070.224,3482.357,3382.758,7078.149,-187500.016,-187500.016,-187500.016,-187500.016][-1059.763,3488.481,3410.898,7153.676,-187500.016,-187500.016,-187500.016,-187500.016][-1056.209,3491.812,3405.087,7023.142,-187500.016,-187500.016,-187500.016,-187500.016][-1083.255,3466.845,3392.414,7003.025,-187500.016,-187500.016,-187500.016,-187500.016][-1080.528,3460.564,3408.239,7182.710,-187500.016,-187500.016,-187500.016,-187500.016][-1078.606,3475.003,3430.859,7108.883,-187500.016,-187500.016,-187500.016,-187500.016][-1062.624,3491.365,3433.183,6995.716,-187500.016,-187500.016,-187500.016,-187500.016][-1049.325,3494.784,3406.942,7029.981,-187500.016,-187500.016,-187500.016,-187500.016][-1079.477,3464.543,3400.706,7127.546,-187500.016,-187500.016,-187500.016,-187500.016][-1090.854,3448.114,3404.819,7126.607,-187500.016,-187500.016,-187500.016,-187500.016][-1097.649,3443.800,3384.233,7074.372,-187500.016,-187500.016,-187500.016,-187500.016][-1066.670,3484.503,3415.883,6957.562,-187500.016,-187500.016,-187500.016,-187500.016][-1068.883,3479.809,3424.600,7070.952,-187500.016,-187500.016,-187500.016,-187500.016][-1073.823,3465.079,3411.904,7147.775,-187500.016,-187500.016,-187500.016,-187500.016][-1060.635,3496.081,3451.221,7079.312,-187500.016,-187500.016,-187500.016,-187500.016][-1075.655,3480.636,3421.448,6968.335,-187500.016,-187500.016,-187500.016,-187500.016][-1074.493,3468.298,3372.163,7073.276,-187500.016,-187500.016,-187500.016,-187500.016][-1118.347,3416.062,3362.574,7183.917,-187500.016,-187500.016,-187500.016,-187500.016][-1062.624,3483.944,3408.507,7145.316,-187500.016,-187500.016,-187500.016,-187500.016][-1044.698,3509.425,3423.929,6994.531,-187500.016,-187500.016,-187500.016,-187500.016][-1068.167,3481.932,3390.223,7019.297,-187500.016,-187500.016,-187500.016,-187500.016][-1071.677,3481.217,3437.676,7122.227,-187500.016,-187500.016,-187500.016,-187500.016][-1088.463,3460.475,3393.598,7061.027,-187500.016,-187500.016,-187500.016,-187500.016][-1118.973,3438.324,3358.707,6964.781,-187500.016,-187500.016,-187500.016,-187500.016][-1130.082,3423.169,3385.127,7000.700,-187500.016,-187500.016,-187500.016,-187500.016][-1062.512,3483.899,3429.205,7124.752,-187500.016,-187500.016,-187500.016,-187500.016][-1068.547,3482.156,3414.162,7081.994,-187500.016,-187500.016,-187500.016,-187500.016][-1051.270,3490.761,3402.695,7055.909,-187500.016,-187500.016,-187500.016,-187500.016][-1049.057,3490.583,3407.009,7062.927,-187500.016,-187500.016,-187500.016,-187500.016][-1084.820,3447.779,3403.098,7213.198,-187500.016,-187500.016,-187500.016,-187500.016][-1112.849,3446.103,3389.597,7110.045,-187500.016,-187500.016,-187500.016,-187500.016][-1099.192,3462.956,3386.379,6936.059,-187500.016,-187500.016,-187500.016,-187500.016][-1074.873,3480.770,3434.927,7003.137,-187500.016,-187500.016,-187500.016,-187500.016][-1073.599,3461.011,3404.014,7134.699,-187500.016,-187500.016,-187500.016,-187500.016][-1075.029,3467.068,3421.068,7115.164,-187500.016,-187500.016,-187500.016,-187', b'500.016][-1061.775,3482.022,3402.136,7045.538,-187500.016,-187500.016,-187500.016,-187500.016][-1062.959,3485.822,3396.034,7021.733,-187500.016,-187500.016,-187500.016,-187500.016][-1084.887,3475.026,3431.328,7080.183,-187500.016,-187500.016,-187500.016,-187500.016][-1109.563,3437.273,3346.146,7025.913,-187500.016,-187500.016,-187500.016,-187500.016][-1038.686,3508.643,3417.112,7036.933,-187500.016,-187500.016,-187500.016,-187500.016][-1076.929,3472.991,3416.799,7096.746,-187500.016,-187500.016,-187500.016,-187500.016][-1146.801,3392.637,3337.763,7129.446,-187500.016,-187500.016,-187500.016,-187500.016][-1088.217,3466.934,3399.723,7045.739,-187500.016,-187500.016,-187500.016,-187500.016][-1075.879,3482.871,3418.431,6981.858,-187500.016,-187500.016,-187500.016,-187500.016][-1075.745,3474.981,3434.792,7088.073,-187500.016,-187500.016,-187500.016,-187500.016][-1068.391,3478.870,3446.840,7077.277,-187500.016,-187500.016,-187500.016,-187500.016][-1072.370,3475.383,3450.752,7076.003,-187500.016,-187500.016,-187500.016,-187500.016][-1077.443,3479.451,3385.552,7026.449,-187500.016,-187500.016,-187500.016,-187500.016][-1105.115,3442.683,3341.452,7007.808,-187500.016,-187500.016,-187500.016,-187500.016][-1066.759,3485.129,3428.668,7113.398,-187500.016,-187500.016,-187500.016,-187500.016][-1091.190,3451.802,3392.704,7130.407,-187500.016,-187500.016,-187500.016,-187500.016][-1114.011,3427.864,3325.939,7014.491,-187500.016,-187500.016,-187500.016,-187500.016][-1065.284,3476.680,3406.652,7055.909,-187500.016,-187500.016,-187500.016,-187500.016][-1053.818,3489.375,3422.566,7083.938,-187500.016,-187500.016,-187500.016,-187500.016][-1124.695,3426.031,3394.246,7062.659,-187500.016,-187500.016,-187500.016,-187500.016][-1072.213,3484.592,3441.789,7065.766,-187500.016,-187500.016,-187500.016,-187500.016][-1059.584,3499.858,3444.583,6988.832,-187500.016,-187500.016,-187500.016,-187500.016][-1081.377,3473.997,3398.225,7109.375,-187500.016,-187500.016,-187500.016,-187500.016][-1085.579,3455.647,3393.866,7136.957,-187500.016,-187500.016,-187500.016,-187500.016][-1102.522,3443.532,3365.815,7006.869,-187500.016,-187500.016,-187500.016,-187500.016][-1099.460,3444.828,3383.071,7018.515,-187500.016,-187500.016,-187500.016,-187500.016][-1122.639,3429.763,3366.351,7025.846,-187500.016,-187500.016,-187500.016,-187500.016][-1101.628,3463.582,3436.000,7082.865,-187500.016,-187500.016,-187500.016,-187500.016][-1082.584,3468.812,3418.721,7095.807,-187500.016,-187500.016,-187500.016,-187500.016][-1061.417,3481.239,3374.510,7020.638,-187500.016,-187500.016,-187500.016,-187500.016][-1056.098,3490.135,3413.603,7046.052,-187500.016,-187500.016,-187500.016,-187500.016][-1075.432,3471.271,3437.341,7141.315,-187500.016,-187500.016,-187500.016,-187500.016][-1123.622,3417.671,3363.066,7080.004,-187500.016,-187500.016,-187500.016,-187500.016][-1126.058,3426.209,3385.261,6970.078,-187500.016,-187500.016,-187500.016,-187500.016][-1068.793,3487.967,3422.834,6998.063,-187500.016,-187500.016,-187500.016,-187500.016][-1063.116,3479.161,3424.689,7145.853,-187500.016,-187500.016,-187500.016,-187500.016][-1093.470,3456.787,3449.813,7089.258,-187500.016,-187500.016,-187500.016,-187500.016][-1092.486,3455.825,3344.134,7006.199,-187500.016,-187500.016,-187500.016,-187500.016][-1139.022,3400.684,3314.048,7031.210,-187500.016,-187500.016,-187500.016,-187500.016][-1118.124,3436.760,3378.131,7092.610,-187500.016,-187500.016,-187500.016,-187500.016][-1074.493,3480.904,3415.346,7080.697,-187500.016,-187500.016,-187500.016,-187500.016][-1075.767,3477.641,3385.999,7019.610,-187500.016,-187500.016,-187500.016,-187500.016][-1079.187,3461.972,3360.987,6990.396,-187500.016,-187500.016,-187500.016,-187500.016][-1111.016,3443.756,3391.430,7075.176,-187500.016,-187500.016,-187500.016,-187500.016][-1092.419,3461.905,3419.168,7065.453,-187500.016,-187500.016,-187500.016,-187500.016][-1110.636,3438.615,3375.627,6972.761,-187500.016,-187500.016,-187500.016,-187500.016][-1110.479,3437.028,3364.049,7001.147,-187500.016,-187500.016,-187500.016,-187500.016][-1102.902,3447.220,3392.033,7106.983,-187500.']
INDEX_b'2.8048951625823975'___FLEX_[b'213,396,379,377,386\n214,396,380,377,386\n213,396,380,377,385\n212,396,380,377,386\n213,397,379,377,385\n213,396,379,377,386\n212,396,380,377,386\n213,396,380,377,386\n212,396,380,376,385\n213,396,380,377,386\n211,397,379,377,386\n211,395,379,378,386\n211,396,380,377,385\n212,396,378,378,385\n212,397,380,377,386\n211,396,380,378,386\n211,396,380,377,386\n211,396,380,377,386\n211,396,380,377,386\n211,396,380,376,386\n211,396,380,377,385\n211,396,380,378,386\n211,396,380,378,386\n211,396,380,378,387\n210,397,380,378,385\n211,396,381,377,385\n210,396,380,377,386\n210,396,380,377,386\n210,396,380,378,386\n210,396,380,378,386\n210,396,381,378,386\n210,396,380,378,386\n209,397,380,378,386\n211,397,380,377,386\n211,396,381,378,386\n210,396,381,377,386\n209,395,380,377,386\n210,396,380,377,386\n210,396,381,377,386\n210,397,380,378,386\n210,396,381,377,386\n210,397,380,378,385\n209,396,381,378,386\n210,396,380,378,386\n209,397,381,378,386\n210,396,380,377,386\n209,396,381,378,386\n209,396,381,377,387\n209,396,380,378,386\n209,396,381,378,386\n', b'209,396,380,377,386\n209,396,381,378,386\n209,396,379,378,386\n209,396,381,377,386\n208,396,381,377,387\n209,396,381,377,386\n209,396,381,377,386\n209,396,380,378,385\n208,397,381,377,386\n209,395,380,378,386\n208,396,380,377,386\n209,396,381,378,386\n209,396,381,377,385\n208,396,381,377,386\n208,396,381,378,386\n208,396,380,377,386\n208,397,381,378,386\n209,396,380,378,386\n208,396,380,378,386\n208,396,381,378,387\n208,396,381,377,387\n208,396,381,377,386\n208,396,381,378,386\n208,396,381,378,386\n208,397,381,377,386\n208,397,381,378,386\n208,396,381,378,386\n207,396,381,378,386\n208,396,380,378,386\n207,396,381,378,386\n207,396,380,377,386\n208,396,381,378,386\n207,397,380,378,386\n208,397,380,378,386\n208,397,380,377,386\n207,396,380,378,385\n208,397,381,377,386\n207,396,381,378,387\n207,397,381,378,386\n207,397,380,378,385\n207,396,381,378,386\n207,396,381,378,386\n207,396,381,377,387\n207,397,381,378,386\n207,397,381,377,387\n207,397,381,378,387\n207,397,381,378,386\n208,397,381,377,387\n207,396,381,378,387\n207,396,381,378,386\n', b'206,397,381,378,386\n207,397,381,378,387\n207,396,381,378,386\n206,397,380,378,386\n207,396,381,378,386\n207,397,381,378,386\n207,396,381,378,386\n207,397,381,378,386\n207,396,382,377,386\n207,397,381,377,386\n206,397,381,378,387\n207,397,381,378,387\n206,397,381,377,386\n206,397,381,378,386\n206,396,381,378,387\n206,397,381,378,386\n206,397,381,377,386\n206,396,381,379,387\n206,397,381,379,386\n206,397,382,378,386\n206,396,381,378,386\n206,397,381,378,387\n206,397,381,377,386\n206,397,381,378,387\n206,397,381,379,387\n206,397,381,378,387\n206,397,381,378,386\n206,397,380,378,387\n206,396,382,378,386\n206,397,381,378,386\n206,397,381,378,386\n206,397,381,378,386\n206,397,381,378,386\n206,397,381,379,387\n206,397,382,378,386\n206,396,382,378,387\n206,398,381,378,387\n206,397,381,378,386\n206,397,381,378,387\n206,397,381,378,386\n206,397,382,378,387\n205,397,381,378,387\n206,397,381,378,387\n205,398,381,378,387\n206,397,381,378,386\n206,397,381,378,386\n205,397,381,378,387\n206,398,381,378,387\n206,397,382,378,387\n206,397,381,378,387\n', b'206,397,382,378,386\n206,397,382,378,387\n206,397,382,378,387\n206,397,381,378,387\n206,397,381,378,387\n206,397,381,378,387\n205,397,382,378,387\n206,397,381,378,387\n205,397,382,378,386\n206,398,381,378,386\n206,397,381,377,387\n206,398,381,378,387\n206,397,381,378,387\n205,397,382,378,387\n205,397,382,378,387\n205,395,381,378,386\n205,397,381,377,387\n206,397,381,379,386\n206,397,381,378,386\n205,397,381,378,387\n204,397,382,378,386\n205,397,382,378,387\n205,397,382,378,387\n205,397,382,378,387\n205,397,381,378,387\n205,397,381,378,386\n205,397,381,378,386\n205,398,381,378,387\n204,397,381,378,386\n205,397,381,378,387\n205,397,382,378,386\n204,397,381,378,386\n205,397,381,378,387\n204,397,381,378,386\n205,397,381,378,387\n205,397,381,378,387\n205,398,381,378,387\n205,397,382,378,387\n205,397,382,378,386\n205,397,381,378,385\n205,397,382,378,387\n205,397,381,378,387\n205,397,381,378,386\n205,398,381,378,387\n204,397,381,378,387\n205,397,381,378,386\n205,397,381,378,386\n205,397,381,378,387\n204,398,382,378,387\n204,397,381,378,386\n']___EMG_[b'016,-187500.016,-187500.016,-187500.016][-1091.324,3456.094,3410.787,7098.355,-187500.016,-187500.016,-187500.016,-187500.016][-1106.545,3438.995,3380.746,7006.958,-187500.016,-187500.016,-187500.016,-187500.016][-1080.237,3473.707,3392.682,6988.585,-187500.016,-187500.016,-187500.016,-187500.016][-1088.441,3461.346,3411.032,7069.186,-187500.016,-187500.016,-187500.016,-187500.016][-1127.333,3411.390,3402.181,7153.854,-187500.016,-187500.016,-187500.016,-187500.016][-1152.031,3409.960,3378.332,6962.099,-187500.016,-187500.016,-187500.016,-187500.016][-1081.310,3471.650,3385.507,6998.443,-187500.016,-187500.016,-187500.016,-187500.016][-1061.842,3474.757,3433.183,7122.495,-187500.016,-187500.016,-187500.016,-187500.016][-1114.033,3430.076,3369.257,7112.213,-187500.016,-187500.016,-187500.016,-187500.016][-1100.399,3462.486,3373.191,7017.062,-187500.016,-187500.016,-187500.016,-187500.016][-1081.780,3472.589,3391.341,6955.639,-187500.016,-187500.016,-187500.016,-187500.016][-1054.891,3497.511,3424.310,7071.935,-187500.016,-187500.016,-187500.016,-187500.016][-1092.017,3456.228,3401.578,7143.483,-187500.016,-187500.016,-187500.016,-187500.016][-1137.570,3405.579,3355.287,7087.604,-187500.016,-187500.016,-187500.016,-187500.016][-1147.561,3380.724,3282.734,7001.639,-187500.016,-187500.016,-187500.016,-187500.016][-1097.024,3462.307,3411.234,6936.908,-187500.016,-187500.016,-187500.016,-187500.016][-1116.000,3443.264,3443.487,7054.836,-187500.016,-187500.016,-187500.016,-187500.016][-1107.797,3442.236,3374.353,7050.902,-187500.016,-187500.016,-187500.016,-187500.016][-1050.331,3489.308,3404.260,6997.124,-187500.016,-187500.016,-187500.016,-187500.016][-1071.498,3481.887,3388.368,6991.603,-187500.016,-187500.016,-187500.016,-187500.016][-1138.821,3409.848,3352.851,7052.042,-187500.016,-187500.016,-187500.016,-187500.016][-1121.700,3437.564,3391.721,7096.857,-187500.016,-187500.016,-187500.016,-187500.016][-1087.167,3467.270,3405.936,7039.659,-187500.016,-187500.016,-187500.016,-187500.016][-1135.111,3415.279,3353.745,6996.230,-187500.016,-187500.016,-187500.016,-187500.016][-1135.379,3422.231,3410.966,7041.648,-187500.016,-187500.016,-187500.016,-187500.016][-1094.610,3459.782,3412.865,7074.953,-187500.016,-187500.016,-187500.016,-187500.016][-1099.862,3437.363,3326.588,7048.086,-187500.016,-187500.016,-187500.016,-187500.016][-1104.020,3439.129,3343.731,6996.297,-187500.016,-187500.016,-187500.016,-187500.016][-1121.745,3423.818,3369.928,7043.861,-187500.016,-187500.016,-187500.016,-187500.016][-1145.393,3418.565,3431.887,7045.270,-187500.016,-187500.016,-187500.016,-187500.016][-1115.732,3443.510,3417.000,7024.661,-187500.016,-187500.016,-187500.016,-187500.016][-1102.321,3463.648,3458.731,7009.351,-187500.016,-187500.016,-187500.016,-187500.016][-1136.072,3423.728,3343.955,7040.621,-187500.016,-187500.016,-187500.016,-187500.016][-1087.859,3454.775,3323.168,7118.986,-187500.016,-187500.016,-187500.016,-187500.016][-1113.005,3434.211,3349.163,7019.878,-187500.016,-187500.016,-187500.016,-187500.016][-1087.234,3466.845,3396.258,6958.970,-187500.016,-187500.016,-187500.016,-187500.016][-1081.198,3477.887,3410.496,7023.432,-187500.016,-187500.016,-187500.016,-187500.016][-1118.392,3428.601,3387.384,7136.331,-187500.016,-187500.016,-187500.016,-187500.016][-1123.332,3426.388,3373.526,7068.359,-187500.016,-187500.016,-187500.016,-187500.016][-1145.795,3420.443,3368.140,6934.763,-187500.016,-187500.016,-187500.016,-187500.016][-1155.183,3420.309,3361.523,6917.485,-187500.016,-187500.016,-187500.016,-187500.016][-1103.684,3447.063,3379.740,7120.841,-187500.016,-187500.016,-187500.016,-187500.016][-1109.049,3440.358,3384.680,7134.028,-187500.016,-187500.016,-187500.016,-187500.016][-1079.343,3468.365,3423.371,7019.498,-187500.016,-187500.016,-187500.016,-187500.016][-1146.354,3389.754,3288.031,6964.647,-187500.016,-187500.016,-187500.016,-187500.016][-1152.389,3409.468,3414.117,7032.216,-187500.016,-187500.016,-187500.016,-187500.016][-1129.232,3444.270,3436.089,7017.754,-187500.016,-187500.016,-187500.016,-187500.016][-1068.078,347', b'4.556,3373.504,7079.267,-187500.016,-187500.016,-187500.016,-187500.016][-1131.512,3419.549,3328.711,7060.871,-187500.016,-187500.016,-187500.016,-187500.016][-1085.356,3484.100,3450.796,7045.024,-187500.016,-187500.016,-187500.016,-187500.016][-1126.595,3436.558,3414.944,7042.029,-187500.016,-187500.016,-187500.016,-187500.016][-1095.951,3460.832,3359.937,6997.616,-187500.016,-187500.016,-187500.016,-187500.016][-1098.007,3461.704,3362.686,6935.724,-187500.016,-187500.016,-187500.016,-187500.016][-1099.058,3447.734,3379.673,7031.545,-187500.016,-187500.016,-187500.016,-187500.016][-1160.056,3389.508,3379.651,7105.530,-187500.016,-187500.016,-187500.016,-187500.016][-1178.876,3392.078,3383.026,6981.433,-187500.016,-187500.016,-187500.016,-187500.016][-1100.622,3456.943,3338.457,6940.284,-187500.016,-187500.016,-187500.016,-187500.016][-1080.953,3472.388,3389.173,7026.583,-187500.016,-187500.016,-187500.016,-187500.016][-1098.856,3469.214,3455.535,7112.705,-187500.016,-187500.016,-187500.016,-187500.016][-1136.743,3420.398,3404.260,7047.795,-187500.016,-187500.016,-187500.016,-187500.016][-1098.856,3457.167,3364.004,7010.200,-187500.016,-187500.016,-187500.016,-187500.016][-1106.545,3444.203,3379.427,7086.754,-187500.016,-187500.016,-187500.016,-187500.016][-1162.827,3386.759,3345.855,7103.563,-187500.016,-187500.016,-187500.016,-187500.016][-1200.825,3378.466,3341.452,6911.159,-187500.016,-187500.016,-187500.016,-187500.016][-1113.094,3449.857,3374.041,6961.831,-187500.016,-187500.016,-187500.016,-187500.016][-1072.638,3463.827,3378.623,7088.542,-187500.016,-187500.016,-187500.016,-187500.016][-1116.291,3438.056,3419.794,7057.831,-187500.016,-187500.016,-187500.016,-187500.016][-1141.146,3417.112,3348.112,7009.864,-187500.016,-187500.016,-187500.016,-187500.016][-1100.399,3470.063,3433.317,6960.512,-187500.016,-187500.016,-187500.016,-187500.016][-1096.063,3464.699,3439.464,6999.806,-187500.016,-187500.016,-187500.016,-187500.016][-1129.814,3411.413,3381.640,7095.024,-187500.016,-187500.016,-187500.016,-187500.016][-1136.631,3419.526,3389.396,7116.817,-187500.016,-187500.016,-187500.016,-187500.016][-1129.970,3421.873,3385.015,6971.688,-187500.016,-187500.016,-187500.016,-187500.016][-1080.237,3451.556,3356.762,6956.801,-187500.016,-187500.016,-187500.016,-187500.016][-1107.574,3450.036,3357.992,7045.404,-187500.016,-187500.016,-187500.016,-187500.016][-1143.649,3406.696,3367.357,7109.330,-187500.016,-187500.016,-187500.016,-187500.016][-1107.976,3442.750,3383.719,7035.010,-187500.016,-187500.016,-187500.016,-187500.016][-1091.011,3481.038,3411.167,6948.375,-187500.016,-187500.016,-187500.016,-187500.016][-1103.304,3448.718,3417.827,7067.912,-187500.016,-187500.016,-187500.016,-187500.016][-1168.013,3382.422,3342.793,7089.548,-187500.016,-187500.016,-187500.016,-187500.016][-1086.921,3455.691,3423.125,7128.731,-187500.016,-187500.016,-187500.016,-187500.016][-1097.605,3462.665,3397.599,6884.314,-187500.016,-187500.016,-187500.016,-187500.016][-1118.168,3431.842,3365.793,6966.211,-187500.016,-187500.016,-187500.016,-187500.016][-1124.650,3420.733,3403.813,7101.350,-187500.016,-187500.016,-187500.016,-187500.016][-1160.234,3399.767,3400.214,7028.908,-187500.016,-187500.016,-187500.016,-187500.016][-1133.837,3423.840,3415.816,6942.496,-187500.016,-187500.016,-187500.016,-187500.016][-1101.472,3438.413,3346.861,7051.215,-187500.016,-187500.016,-187500.016,-187500.016][-1133.345,3407.076,3366.865,7123.143,-187500.016,-187500.016,-187500.016,-187500.016][-1134.195,3413.581,3342.122,7046.030,-187500.016,-187500.016,-187500.016,-187500.016][-1128.920,3406.741,3308.639,6953.829,-187500.016,-187500.016,-187500.016,-187500.016][-1102.053,3448.762,3349.275,6917.104,-187500.016,-187500.016,-187500.016,-187500.016][-1087.167,3475.160,3442.839,7074.461,-187500.016,-187500.016,-187500.016,-187500.016][-1125.991,3428.467,3440.269,7057.295,-187500.016,-187500.016,-187500.016,-187500.016][-1112.469,3447.287,3437.497,7008.456,-187500.016,-187500.016,-187500.016,-187500.016][-1086.004,3461.190,3377.550,7009.954,-187500.016,-187500.016,-18750']
INDEX_b'3.205044746398926'___FLEX_[b'206,397,382,378,387\n205,397,381,378,387\n203,396,382,378,387\n204,398,382,378,387\n205,399,381,378,386\n206,397,382,378,388\n204,397,381,378,387\n205,397,382,378,387\n205,397,382,378,387\n204,397,381,378,386\n205,398,381,378,387\n205,397,381,378,386\n205,397,382,379,386\n205,397,381,378,387\n205,397,381,378,387\n204,397,382,378,387\n204,397,381,377,387\n205,397,381,378,387\n204,397,381,378,386\n205,397,382,378,387\n204,398,382,378,386\n205,397,382,377,387\n204,397,382,379,387\n205,397,382,378,387\n204,397,382,378,386\n205,397,382,378,387\n204,398,382,379,387\n204,397,381,378,386\n205,397,381,378,387\n204,396,382,378,387\n204,397,382,378,386\n205,397,382,378,387\n205,397,382,378,387\n205,397,381,378,387\n205,397,382,378,387\n205,397,382,379,385\n204,397,382,378,387\n205,398,382,378,387\n205,397,382,378,387\n204,397,380,378,386\n205,397,381,378,386\n204,397,381,378,387\n205,397,382,378,387\n204,397,382,379,387\n205,397,381,378,387\n205,397,382,378,387\n206,397,382,378,387\n204,397,381,377,386\n205,397,382,378,387\n204,397,382,377,387\n', b'205,397,381,378,387\n205,397,382,378,386\n205,398,382,378,387\n204,397,382,378,387\n204,397,382,378,387\n206,398,382,379,387\n204,397,381,378,387\n204,397,381,378,387\n205,397,381,378,386\n205,397,382,378,386\n205,397,382,377,386\n205,397,381,378,387\n205,397,382,379,387\n204,396,382,378,386\n205,396,381,377,386\n204,398,381,378,387\n204,397,382,378,387\n205,397,382,378,386\n205,397,381,379,387\n205,397,382,378,387\n204,397,382,378,387\n205,397,383,378,387\n205,397,382,378,387\n205,397,382,378,387\n205,397,382,378,386\n205,397,381,378,386\n205,397,382,378,387\n204,397,382,378,387\n205,398,382,378,387\n205,397,382,378,387\n205,397,382,378,386\n206,397,382,379,385\n205,397,382,378,386\n204,397,382,379,387\n205,397,382,378,387\n205,397,382,378,387\n205,397,382,378,386\n205,397,380,378,386\n204,397,381,378,386\n206,397,382,377,387\n205,397,382,378,386\n205,397,382,378,387\n205,397,382,378,387\n205,397,383,378,387\n205,398,382,377,386\n205,397,382,378,387\n204,397,382,379,387\n205,397,382,378,386\n205,397,381,378,387\n204,397,382,378,386\n', b'205,397,382,378,387\n204,397,381,378,387\n204,397,383,378,387\n204,397,381,379,387\n205,397,382,378,386\n205,397,381,378,387\n204,397,382,377,387\n205,398,382,378,386\n204,397,382,378,387\n205,397,383,378,387\n205,397,381,378,387\n205,397,382,378,385\n205,397,381,378,387\n204,397,382,379,387\n205,397,381,378,387\n204,397,382,378,387\n205,397,382,378,387\n205,397,382,380,387\n205,397,382,378,387\n204,397,382,378,387\n205,397,383,378,386\n204,397,382,378,387\n204,398,382,379,387\n205,397,382,378,386\n205,397,382,378,387\n205,397,383,378,387\n205,397,382,378,386\n205,398,381,378,387\n205,397,382,378,387\n205,397,382,378,386\n205,397,382,378,387\n204,397,382,378,387\n206,397,382,378,387\n205,397,382,378,386\n206,397,382,379,386\n205,397,382,378,386\n205,397,382,377,386\n205,397,382,379,387\n205,397,382,378,386\n206,397,383,378,386\n205,397,382,378,386\n205,397,382,379,387\n205,397,382,378,386\n205,396,382,378,386\n206,397,382,378,386\n205,397,382,378,386\n205,397,381,378,386\n206,397,382,378,386\n205,397,382,378,386\n205,396,382,378,386\n', b'206,397,382,378,387\n205,396,382,378,387\n205,397,382,378,386\n205,396,382,378,386\n205,397,382,379,386\n205,396,382,378,387\n206,397,382,378,387\n205,397,382,378,386\n204,397,382,379,386\n205,396,382,378,387\n205,397,382,378,386\n205,397,382,378,386\n204,397,382,378,387\n204,396,382,378,386\n205,397,383,378,387\n205,397,382,378,387\n205,397,382,378,386\n206,397,382,379,387\n203,397,382,378,386\n206,396,382,378,386\n205,396,382,379,387\n205,397,382,378,386\n206,396,382,378,387\n206,397,382,378,386\n205,396,383,378,386\n205,396,382,378,386\n205,397,382,378,387\n205,397,382,377,386\n205,396,382,379,386\n206,397,382,378,386\n205,397,381,378,386\n205,396,383,378,387\n205,396,382,378,387\n205,396,382,378,386\n205,397,382,378,386\n205,397,382,378,387\n204,396,382,378,386\n205,396,382,378,386\n205,397,382,377,386\n205,397,384,378,386\n205,395,382,378,386\n206,395,382,377,386\n204,396,382,376,386\n205,396,382,378,386\n205,397,382,378,387\n205,396,383,378,386\n205,397,382,378,386\n204,396,382,378,386\n205,396,382,378,386\n205,397,382,378,386\n', b'205,397,383,379,386\n205,397,382,378,386\n204,397,382,378,386\n205,396,382,378,386\n205,396,382,379,386\n204,396,381,378,387\n205,397,383,378,387\n205,397,383,378,386\n205,397,383,378,386\n206,397,382,378,386\n206,397,382,378,386\n205,397,383,378,388\n205,396,382,378,386\n205,396,383,378,387\n205,396,382,378,386\n205,396,382,378,386\n205,397,382,378,386\n205,397,382,378,386\n205,397,382,378,386\n204,396,382,378,387\n205,396,382,378,385\n205,397,382,378,386\n204,397,382,378,386\n205,396,381,378,386\n205,397,382,378,386\n203,397,382,378,386\n205,396,382,378,386\n205,396,382,378,386\n205,397,383,378,387\n205,397,382,378,387\n205,396,383,378,386\n205,397,382,378,387\n204,396,382,377,386\n205,397,383,378,386\n205,397,382,377,386\n205,396,382,378,386\n205,396,382,378,385\n205,397,382,378,386\n205,396,382,378,386\n205,397,382,378,386\n204,396,382,378,387\n205,397,383,378,386\n205,397,383,378,386\n205,396,382,378,386\n205,396,382,378,386\n205,397,382,378,387\n205,397,382,379,386\n206,397,382,378,386\n205,397,382,378,386\n205,397,382,379,386\n']___EMG_[b'0.016,-187500.016][-1118.370,3439.285,3399.052,7066.794,-187500.016,-187500.016,-187500.016,-187500.016][-1123.265,3435.485,3408.775,7131.167,-187500.016,-187500.016,-187500.016,-187500.016][-1088.552,3446.371,3378.064,7020.303,-187500.016,-187500.016,-187500.016,-187500.016][-1105.227,3424.131,3347.464,6940.104,-187500.016,-187500.016,-187500.016,-187500.016][-1156.435,3395.431,3391.832,6989.077,-187500.016,-187500.016,-187500.016,-187500.016][-1150.757,3391.899,3408.999,7089.370,-187500.016,-187500.016,-187500.016,-187500.016][-1123.600,3436.379,3427.752,6980.830,-187500.016,-187500.016,-187500.016,-187500.016][-1088.351,3451.310,3337.786,6996.319,-187500.016,-187500.016,-187500.016,-187500.016][-1076.929,3464.408,3357.277,7032.775,-187500.016,-187500.016,-187500.016,-187500.016][-1110.099,3434.904,3408.552,7098.444,-187500.016,-187500.016,-187500.016,-187500.016][-1155.406,3391.654,3360.450,7020.370,-187500.016,-187500.016,-187500.016,-187500.016][-1151.696,3395.968,3354.505,6973.990,-187500.016,-187500.016,-187500.016,-187500.016][-1060.411,3481.172,3447.041,7052.109,-187500.016,-187500.016,-187500.016,-187500.016][-1101.852,3447.287,3436.536,7108.793,-187500.016,-187500.016,-187500.016,-187500.016][-1083.769,3450.819,3384.278,6996.677,-187500.016,-187500.016,-187500.016,-187500.016][-1082.808,3465.772,3392.771,6941.155,-187500.016,-187500.016,-187500.016,-187500.016][-1108.356,3441.856,3372.051,7001.751,-187500.016,-187500.016,-187500.016,-187500.016][-1144.700,3406.093,3402.628,7044.353,-187500.016,-187500.016,-187500.016,-187500.016][-1159.564,3371.559,3301.353,7056.021,-187500.016,-187500.016,-187500.016,-187500.016][-1088.686,3445.633,3393.956,7057.876,-187500.016,-187500.016,-187500.016,-187500.016][-1130.439,3423.684,3458.821,6987.021,-187500.016,-187500.016,-187500.016,-187500.016][-1170.963,3368.542,3378.578,7051.662,-187500.016,-187500.016,-187500.016,-187500.016][-1088.195,3460.966,3433.921,7063.933,-187500.016,-187500.016,-187500.016,-187500.016][-1086.541,3453.434,3390.849,6977.499,-187500.016,-187500.016,-187500.016,-187500.016][-1116.201,3420.890,3307.812,6934.159,-187500.016,-187500.016,-187500.016,-187500.016][-1118.124,3412.642,3350.258,7048.421,-187500.016,-187500.016,-187500.016,-187500.016][-1105.115,3436.983,3426.835,7101.842,-187500.016,-187500.016,-187500.016,-187500.016][-1108.222,3435.821,3422.521,6968.804,-187500.016,-187500.016,-187500.016,-187500.016][-1070.090,3459.782,3391.274,6960.892,-187500.016,-187500.016,-187500.016,-187500.016][-1087.144,3456.272,3381.998,7066.347,-187500.016,-187500.016,-187500.016,-187500.016][-1125.947,3418.789,3406.205,7097.349,-187500.016,-187500.016,-187500.016,-187500.016][-1155.652,3390.603,3357.366,6988.876,-187500.016,-187500.016,-187500.016,-187500.016][-1106.389,3443.308,3396.057,6976.963,-187500.016,-187500.016,-187500.016,-187500.016][-1129.657,3411.100,3385.440,7031.054,-187500.016,-187500.016,-187500.016,-187500.016][-1127.333,3410.049,3459.692,7125.624,-187500.016,-187500.016,-187500.016,-187500.016][-1112.357,3415.257,3313.825,7018.067,-187500.016,-187500.016,-187500.016,-187500.016][-1056.969,3491.298,3421.918,6933.980,-187500.016,-187500.016,-187500.016,-187500.016][-1127.400,3426.411,3396.415,6932.617,-187500.016,-187500.016,-187500.016,-187500.016][-1164.079,3378.891,3372.833,7014.514,-187500.016,-187500.016,-187500.016,-187500.016][-1124.896,3422.477,3381.953,7031.702,-187500.016,-187500.016,-187500.016,-187500.016][-1065.195,3468.454,3404.573,7004.947,-187500.016,-187500.016,-187500.016,-187500.016][-1089.022,3443.353,3371.917,7002.287,-187500.016,-187500.016,-187500.016,-187500.016][-1131.199,3396.772,3333.070,7099.271,-187500.016,-187500.016,-187500.016,-187500.016][-1131.669,3393.017,3340.267,7045.672,-187500.016,-187500.016,-187500.016,-187500.016][-1090.542,3447.689,3440.805,6945.424,-187500.016,-187500.016,-187500.016,-187500.016][-1119.644,3424.980,3413.737,6934.472,-187500.016,-187500.016,-187500.016,-187500.016][-1110.859,3435.083,3444.672,7038.966,-187500.016,-187500.016,-187500.016,-187500.016][-1131.915,3399.521,3374.957,7080.16', b'1,-187500.016,-187500.016,-187500.016,-187500.016][-1117.609,3404.528,3364.183,7067.622,-187500.016,-187500.016,-187500.016,-187500.016][-1068.234,3459.402,3367.648,6939.322,-187500.016,-187500.016,-187500.016,-187500.016][-1102.477,3430.322,3410.161,7011.809,-187500.016,-187500.016,-187500.016,-187500.016][-1187.235,3369.145,3392.570,6957.181,-187500.016,-187500.016,-187500.016,-187500.016][-1127.780,3418.900,3398.113,6963.082,-187500.016,-187500.016,-187500.016,-187500.016][-1100.846,3427.148,3333.494,6996.632,-187500.016,-187500.016,-187500.016,-187500.016][-1055.651,3470.756,3427.841,7080.541,-187500.016,-187500.016,-187500.016,-187500.016][-1079.321,3458.396,3434.345,7116.438,-187500.016,-187500.016,-187500.016,-187500.016][-1135.871,3404.394,3369.391,7027.634,-187500.016,-187500.016,-187500.016,-187500.016][-1121.298,3417.582,3333.181,6863.014,-187500.016,-187500.016,-187500.016,-187500.016][-1060.389,3477.015,3429.942,6987.334,-187500.016,-187500.016,-187500.016,-187500.016][-1160.190,3378.623,3401.242,7037.335,-187500.016,-187500.016,-187500.016,-187500.016][-1120.158,3403.411,3379.628,7021.666,-187500.016,-187500.016,-187500.016,-187500.016][-1114.525,3428.154,3397.711,6873.519,-187500.016,-187500.016,-187500.016,-187500.016][-1080.908,3457.703,3386.602,7054.389,-187500.016,-187500.016,-187500.016,-187500.016][-1105.227,3427.640,3405.065,7086.643,-187500.016,-187500.016,-187500.016,-187500.016][-1088.105,3434.703,3384.143,7035.927,-187500.016,-187500.016,-187500.016,-187500.016][-1106.098,3430.635,3360.115,6940.417,-187500.016,-187500.016,-187500.016,-187500.016][-1080.595,3444.270,3387.697,6986.574,-187500.016,-187500.016,-187500.016,-187500.016][-1133.166,3414.452,3396.526,7055.730,-187500.016,-187500.016,-187500.016,-187500.016][-1113.720,3422.588,3433.027,7029.534,-187500.016,-187500.016,-187500.016,-187500.016][-1130.909,3403.634,3408.484,6911.517,-187500.016,-187500.016,-187500.016,-187500.016][-1115.888,3417.604,3330.924,6942.898,-187500.016,-187500.016,-187500.016,-187500.016][-1137.905,3406.584,3392.972,7012.815,-187500.016,-187500.016,-187500.016,-187500.016][-1152.434,3384.479,3361.255,7019.766,-187500.016,-187500.016,-187500.016,-187500.016][-1097.113,3426.209,3355.354,7038.542,-187500.016,-187500.016,-187500.016,-187500.016][-1068.190,3459.223,3408.507,6996.811,-187500.016,-187500.016,-187500.016,-187500.016][-1139.402,3407.814,3456.675,6927.476,-187500.016,-187500.016,-187500.016,-187500.016][-1055.069,3476.501,3414.028,7095.695,-187500.016,-187500.016,-187500.016,-187500.016][-1061.171,3460.028,3392.771,7049.830,-187500.016,-187500.016,-187500.016,-187500.016][-1097.985,3438.548,3370.710,6962.054,-187500.016,-187500.016,-187500.016,-187500.016][-1135.379,3400.907,3363.110,6967.933,-187500.016,-187500.016,-187500.016,-187500.016][-1176.685,3371.649,3400.929,7059.888,-187500.016,-187500.016,-187500.016,-187500.016][-1079.634,3464.833,3401.176,6976.449,-187500.016,-187500.016,-187500.016,-187500.016][-1051.001,3475.450,3374.733,6947.570,-187500.016,-187500.016,-187500.016,-187500.016][-1067.117,3466.890,3426.723,7020.124,-187500.016,-187500.016,-187500.016,-187500.016][-1130.439,3404.126,3413.313,7026.449,-187500.016,-187500.016,-187500.016,-187500.016][-1114.190,3428.892,3405.668,6960.176,-187500.016,-187500.016,-187500.016,-187500.016][-1114.793,3425.695,3343.530,6920.994,-187500.016,-187500.016,-187500.016,-187500.016][-1121.588,3409.691,3427.104,7007.518,-187500.016,-187500.016,-187500.016,-187500.016][-1117.900,3428.713,3460.854,7058.770,-187500.016,-187500.016,-187500.016,-187500.016][-1130.752,3419.683,3396.884,7016.146,-187500.016,-187500.016,-187500.016,-187500.016][-1117.833,3414.072,3353.566,6974.951,-187500.016,-187500.016,-187500.016,-187500.016][-1125.075,3421.873,3354.907,6939.501,-187500.016,-187500.016,-187500.016,-187500.016][-1128.204,3420.577,3374.197,6991.402,-187500.016,-187500.016,-187500.016,-187500.016][-1065.418,3457.412,3400.929,7126.496,-187500.016,-187500.016,-187500.016,-187500.016][-1105.026,3429.741,3364.027,6938.272,-187500.016,-187500.016,-187500.016,-187500.016][-11']
INDEX_b'3.60591983795166'___FLEX_[b'204,397,381,378,385\n205,396,382,378,385\n205,397,381,378,386\n204,397,383,378,386\n205,397,382,378,386\n205,396,382,379,386\n206,396,383,378,386\n206,396,382,378,386\n205,397,382,378,386\n205,397,382,378,386\n205,396,383,377,386\n204,396,382,378,386\n204,396,382,378,386\n204,396,382,379,386\n205,396,383,378,386\n204,396,382,378,386\n206,397,381,378,386\n205,396,381,378,386\n205,396,382,378,386\n205,396,383,378,385\n205,396,382,378,386\n205,396,382,378,386\n205,396,382,378,386\n205,395,382,377,384\n205,396,382,378,385\n205,395,382,378,386\n205,396,383,378,386\n206,396,383,378,386\n205,396,382,378,386\n206,395,382,379,385\n205,396,382,378,385\n205,396,383,377,386\n205,396,381,377,386\n206,396,382,378,385\n205,396,383,378,385\n205,396,382,378,386\n205,396,382,378,386\n205,396,382,378,385\n205,396,382,378,386\n205,396,382,378,386\n206,396,382,377,386\n206,396,382,378,386\n205,396,382,378,386\n205,395,382,378,386\n205,396,382,378,385\n205,396,383,378,386\n205,396,382,378,386\n205,396,382,378,386\n204,396,382,378,386\n205,396,382,378,386\n', b'205,396,383,378,387\n205,396,382,377,386\n205,396,383,378,386\n205,395,382,378,386\n205,396,383,378,386\n205,395,382,378,385\n205,395,382,378,386\n205,396,383,377,385\n205,396,383,378,387\n205,395,383,378,386\n205,396,383,379,386\n205,396,382,378,386\n205,396,382,378,385\n206,396,382,378,385\n204,397,382,378,387\n205,396,382,378,386\n205,395,382,378,385\n206,396,382,378,386\n205,394,382,378,386\n205,396,382,379,386\n206,395,382,378,385\n206,396,382,378,386\n205,395,383,378,386\n206,396,382,378,386\n207,396,382,378,385\n205,396,382,378,387\n205,396,382,378,386\n205,396,382,379,386\n205,396,383,378,385\n206,396,382,378,385\n206,396,383,377,385\n205,396,382,378,385\n205,395,383,378,385\n205,396,383,378,386\n206,396,383,378,386\n205,396,382,378,386\n205,396,382,378,386\n205,396,382,378,386\n206,396,382,378,385\n204,395,383,378,386\n205,396,383,378,385\n206,396,383,378,386\n205,396,382,378,386\n206,396,383,378,385\n205,396,382,378,385\n206,395,382,377,385\n206,396,383,378,385\n206,395,382,378,385\n206,396,383,378,386\n205,396,383,378,386\n', b'206,395,382,377,385\n205,396,383,379,386\n205,395,382,378,386\n206,395,382,378,385\n206,396,382,378,385\n205,396,382,377,386\n204,396,382,377,386\n206,396,382,378,386\n205,397,382,378,386\n205,396,382,378,385\n206,396,382,378,386\n205,396,383,378,385\n205,396,383,378,386\n206,396,383,376,385\n206,396,382,378,385\n206,396,383,378,385\n205,396,382,378,385\n206,396,382,377,385\n206,395,383,378,385\n206,395,382,378,385\n205,396,383,378,385\n206,396,382,378,386\n206,395,382,379,385\n207,396,382,378,385\n206,396,383,378,385\n206,396,383,378,385\n206,396,382,378,385\n206,396,382,378,386\n205,396,382,378,386\n206,396,382,378,385\n206,396,382,378,385\n207,395,381,378,385\n206,395,382,378,385\n207,395,382,378,385\n205,396,383,378,385\n205,395,382,378,385\n207,395,382,379,385\n206,396,383,378,385\n206,395,382,378,385\n206,396,383,379,386\n206,395,383,378,385\n206,395,382,378,386\n206,396,383,378,385\n206,396,383,378,385\n206,395,383,378,385\n206,396,382,378,385\n206,396,382,378,386\n206,395,382,378,385\n206,396,382,378,385\n206,396,382,378,385\n', b'206,396,383,378,385\n207,396,383,378,385\n206,396,382,378,385\n208,396,383,378,386\n206,397,383,377,386\n205,396,383,378,386\n206,396,383,378,385\n206,396,381,379,385\n206,396,382,378,385\n206,395,382,377,385\n206,396,383,378,385\n207,396,383,378,386\n206,396,383,379,385\n208,397,383,378,385\n206,396,383,377,385\n206,396,383,378,385\n206,396,382,378,385\n207,396,382,378,385\n206,396,383,378,385\n206,396,382,378,385\n206,396,382,378,385\n206,396,383,378,385\n206,397,382,378,385\n207,396,382,377,385\n206,396,383,378,385\n206,396,382,378,385\n206,396,382,378,387\n206,396,382,378,386\n206,396,382,378,385\n206,397,382,378,385\n206,396,383,377,385\n206,395,383,378,385\n205,396,383,378,386\n207,396,382,378,385\n206,396,383,378,385\n207,397,383,378,385\n206,396,383,378,385\n206,395,382,378,386\n206,395,383,378,385\n206,396,383,378,385\n206,396,383,377,385\n207,396,383,379,385\n207,396,382,377,385\n207,396,383,378,385\n207,396,383,378,384\n206,396,383,378,385\n207,396,383,377,385\n206,397,383,378,385\n207,396,383,378,385\n207,396,382,378,385\n', b'207,396,383,378,385\n206,396,383,378,385\n207,396,383,378,385\n206,396,382,378,385\n207,395,383,378,385\n206,396,383,378,385\n207,396,383,378,386\n207,395,383,378,385\n207,396,383,378,385\n206,396,383,378,385\n207,396,383,378,385\n206,396,382,377,385\n206,396,382,378,385\n207,396,383,378,385\n206,396,383,378,385\n206,396,383,377,385\n207,396,383,379,385\n207,396,382,377,384\n206,395,383,378,385\n207,396,383,378,385\n207,396,383,378,385\n207,396,383,378,385\n206,396,382,378,385\n207,396,382,378,385\n206,396,381,377,385\n206,396,383,377,386\n207,396,383,378,385\n206,396,383,377,385\n206,395,382,378,385\n207,395,382,378,385\n207,396,382,377,385\n206,397,383,378,385\n206,396,383,378,385\n206,395,383,378,385\n207,395,383,377,385\n207,395,382,378,385\n207,396,382,377,385\n206,396,383,378,385\n207,395,383,378,385\n207,396,383,377,385\n206,396,383,378,385\n207,396,382,378,385\n207,395,383,378,385\n207,396,383,378,385\n206,395,382,377,385\n206,396,382,378,384\n207,396,382,378,385\n207,396,383,379,385\n206,395,383,378,385\n207,396,383,378,385\n']___EMG_[b'64.235,3398.560,3349.744,6815.851,-187500.016,-187500.016,-187500.016,-187500.016][-1081.422,3456.138,3446.214,7024.460,-187500.016,-187500.016,-187500.016,-187500.016][-1125.455,3411.278,3365.748,7032.060,-187500.016,-187500.016,-187500.016,-187500.016][-1098.633,3434.435,3389.217,6996.967,-187500.016,-187500.016,-187500.016,-187500.016][-1085.758,3453.858,3388.971,6921.866,-187500.016,-187500.016,-187500.016,-187500.016][-1178.071,3372.610,3398.985,6985.568,-187500.016,-187500.016,-187500.016,-187500.016][-1057.439,3467.046,3451.422,7092.454,-187500.016,-187500.016,-187500.016,-187500.016][-1039.781,3478.199,3388.658,7025.779,-187500.016,-187500.016,-187500.016,-187500.016][-1143.001,3397.264,3361.121,6919.250,-187500.016,-187500.016,-187500.016,-187500.016][-1221.389,3346.816,3360.540,6918.692,-187500.016,-187500.016,-187500.016,-187500.016][-1126.103,3404.148,3341.586,7024.974,-187500.016,-187500.016,-187500.016,-187500.016][-1028.851,3493.488,3448.449,7031.054,-187500.016,-187500.016,-187500.016,-187500.016][-1142.420,3412.955,3364.586,6866.880,-187500.016,-187500.016,-187500.016,-187500.016][-1235.627,3341.027,3300.749,6894.932,-187500.016,-187500.016,-187500.016,-187500.016][-1065.999,3469.080,3409.803,7092.968,-187500.016,-187500.016,-187500.016,-187500.016][-1048.878,3479.339,3441.565,7036.910,-187500.016,-187500.016,-187500.016,-187500.016][-1077.756,3458.575,3414.542,6951.504,-187500.016,-187500.016,-187500.016,-187500.016][-1111.418,3436.513,3395.565,6952.041,-187500.016,-187500.016,-187500.016,-187500.016][-1203.127,3340.088,3293.507,6951.437,-187500.016,-187500.016,-187500.016,-187500.016][-1121.633,3415.838,3372.342,6992.788,-187500.016,-187500.016,-187500.016,-187500.016][-1039.267,3497.981,3479.921,7006.221,-187500.016,-187500.016,-187500.016,-187500.016][-1143.605,3414.810,3399.946,6853.894,-187500.016,-187500.016,-187500.016,-187500.016][-1136.832,3416.285,3405.825,7008.479,-187500.016,-187500.016,-187500.016,-187500.016][-1092.777,3443.308,3418.833,7044.778,-187500.016,-187500.016,-187500.016,-187500.016][-1106.836,3429.674,3357.545,7021.823,-187500.016,-187500.016,-187500.016,-187500.016][-1154.736,3384.792,3333.852,6913.350,-187500.016,-187500.016,-187500.016,-187500.016][-1113.318,3437.877,3400.907,7006.556,-187500.016,-187500.016,-187500.016,-187500.016][-1087.636,3440.604,3412.284,7057.228,-187500.016,-187500.016,-187500.016,-187500.016][-1119.487,3423.013,3359.735,6904.499,-187500.016,-187500.016,-187500.016,-187500.016][-1241.058,3346.682,3307.969,6735.385,-187500.016,-187500.016,-187500.016,-187500.016][-1188.018,3373.392,3380.656,6973.252,-187500.016,-187500.016,-187500.016,-187500.016][-1069.576,3456.496,3421.225,7104.569,-187500.016,-187500.016,-187500.016,-187500.016][-1069.911,3460.519,3397.286,6957.315,-187500.016,-187500.016,-187500.016,-187500.016][-1104.891,3427.327,3330.902,6885.656,-187500.016,-187500.016,-187500.016,-187500.016][-1168.192,3379.383,3342.413,6996.498,-187500.016,-187500.016,-187500.016,-187500.016][-1101.136,3433.630,3427.617,7152.536,-187500.016,-187500.016,-187500.016,-187500.016][-1043.737,3488.638,3419.325,6971.688,-187500.016,-187500.016,-187500.016,-187500.016][-1134.597,3412.463,3352.493,6827.586,-187500.016,-187500.016,-187500.016,-187500.016][-1170.695,3379.561,3351.041,6886.416,-187500.016,-187500.016,-187500.016,-187500.016][-1162.112,3379.002,3350.571,6988.071,-187500.016,-187500.016,-187500.016,-187500.016][-1061.417,3477.462,3429.406,7028.126,-187500.016,-187500.016,-187500.016,-187500.016][-1088.306,3449.857,3416.956,6913.729,-187500.016,-187500.016,-187500.016,-187500.016][-1121.096,3417.202,3449.925,6988.004,-187500.016,-187500.016,-187500.016,-187500.016][-1156.457,3401.220,3457.278,7041.805,-187500.016,-187500.016,-187500.016,-187500.016][-1129.747,3420.711,3356.651,6985.590,-187500.016,-187500.016,-187500.016,-187500.016][-1067.765,3476.210,3371.313,6872.066,-187500.016,-187500.016,-187500.016,-187500.016][-1091.391,3444.784,3360.048,6913.260,-187500.016,-187500.016,-187500.016,-187500.016][-1224.205,3315.412,3267.087,6883.085,-187500.016,-187500.', b'016,-187500.016,-187500.016][-1177.803,3361.903,3325.939,6977.499,-187500.016,-187500.016,-187500.016,-187500.016][-1078.673,3479.384,3454.417,7013.933,-187500.016,-187500.016,-187500.016,-187500.016][-1117.878,3429.495,3394.425,6901.168,-187500.016,-187500.016,-187500.016,-187500.016][-1144.297,3422.231,3413.447,6915.361,-187500.016,-187500.016,-187500.016,-187500.016][-1117.542,3406.137,3422.231,7077.635,-187500.016,-187500.016,-187500.016,-187500.016][-1114.503,3414.050,3358.059,6979.086,-187500.016,-187500.016,-187500.016,-187500.016][-1062.580,3472.299,3429.271,6903.135,-187500.016,-187500.016,-187500.016,-187500.016][-1095.727,3441.029,3401.019,7010.513,-187500.016,-187500.016,-187500.016,-187500.016][-1087.614,3457.904,3415.592,7068.381,-187500.016,-187500.016,-187500.016,-187500.016][-1118.995,3421.963,3347.353,6899.291,-187500.016,-187500.016,-187500.016,-187500.016][-1150.265,3390.402,3343.463,6913.193,-187500.016,-187500.016,-187500.016,-187500.016][-1206.368,3333.025,3390.044,6923.073,-187500.016,-187500.016,-187500.016,-187500.016][-1175.098,3378.041,3416.553,6935.053,-187500.016,-187500.016,-187500.016,-187500.016][-1040.630,3495.723,3445.544,7038.765,-187500.016,-187500.016,-187500.016,-187500.016][-1072.660,3464.587,3369.056,6934.628,-187500.016,-187500.016,-187500.016,-187500.016][-1190.655,3348.045,3328.711,6887.869,-187500.016,-187500.016,-187500.016,-187500.016][-1125.656,3410.340,3361.613,6956.064,-187500.016,-187500.016,-187500.016,-187500.016][-1123.198,3414.430,3377.706,6959.864,-187500.016,-187500.016,-187500.016,-187500.016][-1103.394,3423.639,3343.061,6890.193,-187500.016,-187500.016,-187500.016,-187500.016][-1073.979,3446.706,3402.561,6946.788,-187500.016,-187500.016,-187500.016,-187500.016][-1171.097,3394.693,3402.136,6979.488,-187500.016,-187500.016,-187500.016,-187500.016][-1154.736,3382.467,3366.351,6987.803,-187500.016,-187500.016,-187500.016,-187500.016][-1067.251,3470.555,3422.745,6929.331,-187500.016,-187500.016,-187500.016,-187500.016][-1103.595,3439.710,3411.010,6921.508,-187500.016,-187500.016,-187500.016,-187500.016][-1138.352,3396.862,3386.088,6955.482,-187500.016,-187500.016,-187500.016,-187500.016][-1066.424,3459.871,3417.358,7029.266,-187500.016,-187500.016,-187500.016,-187500.016][-1113.273,3420.800,3363.245,6953.248,-187500.016,-187500.016,-187500.016,-187500.016][-1126.863,3423.237,3409.378,6914.020,-187500.016,-187500.016,-187500.016,-187500.016][-1170.427,3386.647,3472.634,6959.215,-187500.016,-187500.016,-187500.016,-187500.016][-1115.531,3417.984,3420.286,6989.927,-187500.016,-187500.016,-187500.016,-187500.016][-1090.072,3425.449,3318.049,6899.581,-187500.016,-187500.016,-187500.016,-187500.016][-1095.124,3438.548,3339.865,6900.296,-187500.016,-187500.016,-187500.016,-187500.016][-1086.652,3448.114,3415.346,7015.922,-187500.016,-187500.016,-187500.016,-187500.016][-1168.370,3362.172,3349.431,6922.648,-187500.016,-187500.016,-187500.016,-187500.016][-1159.541,3382.579,3332.042,6853.805,-187500.016,-187500.016,-187500.016,-187500.016][-1101.628,3430.367,3397.688,6986.351,-187500.016,-187500.016,-187500.016,-187500.016][-1109.474,3425.181,3422.790,6977.455,-187500.016,-187500.016,-187500.016,-187500.016][-1140.453,3400.393,3362.283,6941.513,-187500.016,-187500.016,-187500.016,-187500.016][-1138.553,3399.544,3371.895,6927.699,-187500.016,-187500.016,-187500.016,-187500.016][-1168.504,3384.166,3361.613,6809.638,-187500.016,-187500.016,-187500.016,-187500.016][-1033.366,3485.486,3425.382,7052.377,-187500.016,-187500.016,-187500.016,-187500.016][-1067.229,3456.787,3429.361,7043.347,-187500.016,-187500.016,-187500.016,-187500.016][-1168.817,3362.909,3338.054,6880.716,-187500.016,-187500.016,-187500.016,-187500.016][-1205.273,3328.845,3248.848,6787.666,-187500.016,-187500.016,-187500.016,-187500.016][-1067.653,3449.880,3405.914,6970.078,-187500.016,-187500.016,-187500.016,-187500.016][-1050.130,3484.391,3514.029,7061.095,-187500.016,-187500.016,-187500.016,-187500.016][-1133.412,3408.842,3439.196,6959.461,-187500.016,-187500.016,-187500.016,-187500.016][-1188.308,3368.229,3338.2']
INDEX_b'4.005966424942017'___FLEX_[b'207,395,383,377,385\n206,395,383,377,385\n207,395,382,377,385\n207,395,382,378,385\n207,395,383,377,385\n207,395,383,378,385\n206,396,383,378,385\n206,395,383,377,385\n207,395,383,378,384\n207,395,382,378,385\n207,395,383,376,385\n206,396,383,378,385\n207,395,383,377,385\n207,395,383,378,385\n207,395,382,378,384\n206,395,382,377,385\n206,395,383,378,385\n207,395,383,378,385\n207,395,383,378,385\n207,395,383,378,385\n207,395,382,377,385\n207,395,382,378,385\n207,396,383,378,385\n207,395,383,378,385\n207,395,383,378,385\n208,395,383,378,385\n207,394,383,378,384\n206,395,383,377,385\n207,395,384,378,384\n207,395,382,378,384\n207,395,383,377,385\n207,395,383,378,385\n207,395,383,378,385\n207,395,384,377,385\n207,395,383,378,385\n207,395,382,378,385\n207,395,383,378,385\n206,396,382,377,385\n207,395,382,378,385\n207,395,383,378,385\n207,395,382,378,385\n207,395,383,378,385\n207,396,382,378,385\n207,395,383,378,385\n207,395,382,378,385\n206,395,383,378,385\n208,396,383,377,385\n208,395,383,378,385\n207,395,383,378,385\n208,395,383,378,385\n', b'207,395,383,378,384\n208,395,383,379,385\n206,395,382,377,385\n208,395,383,378,385\n207,395,383,378,384\n207,394,383,378,384\n208,395,383,378,385\n207,395,383,378,385\n207,395,383,377,385\n208,394,382,377,384\n207,395,383,378,385\n206,395,384,378,385\n208,395,382,378,385\n207,395,384,378,385\n207,394,383,378,384\n206,394,382,378,385\n207,395,383,378,385\n208,394,382,377,385\n207,395,381,377,385\n207,395,383,378,385\n207,395,383,377,384\n208,395,383,378,385\n207,395,383,377,385\n207,395,382,378,385\n207,394,383,378,385\n208,395,383,377,385\n208,395,383,377,385\n208,395,383,378,385\n208,395,383,378,385\n207,395,383,378,385\n208,395,383,377,385\n208,395,383,377,385\n207,395,383,378,385\n207,395,383,378,385\n205,396,383,377,385\n208,395,383,378,385\n207,395,383,377,385\n207,395,382,378,385\n207,395,383,378,385\n208,394,383,378,385\n207,395,383,378,385\n208,395,383,378,385\n208,395,382,378,385\n208,395,383,377,385\n205,396,383,378,385\n207,395,383,378,385\n207,394,383,378,385\n208,395,383,378,384\n207,395,383,377,385\n206,395,383,378,385\n', b'209,395,383,378,385\n208,395,382,378,385\n208,395,383,378,385\n207,395,383,378,385\n208,394,382,377,385\n208,395,383,378,385\n207,395,382,377,385\n207,394,383,379,385\n208,394,383,377,385\n208,395,383,378,385\n208,395,383,378,385\n208,394,383,378,385\n207,394,382,377,385\n208,394,383,377,384\n208,395,383,378,386\n206,394,383,378,385\n208,394,383,378,386\n208,395,382,378,386\n208,394,383,378,386\n208,394,383,378,385\n208,394,383,377,384\n208,394,383,377,384\n207,394,383,378,385\n208,394,383,377,385\n207,394,383,377,385\n208,394,382,378,385\n208,394,382,377,385\n208,394,382,377,384\n207,394,382,377,385\n208,394,383,378,385\n207,393,383,378,385\n208,394,383,378,385\n208,394,383,378,385\n208,394,383,377,385\n208,394,383,378,385\n208,394,383,377,385\n208,394,383,377,385\n208,394,382,378,385\n208,394,382,378,385\n208,394,383,378,386\n208,394,383,377,385\n208,394,383,378,385\n208,395,383,378,385\n208,393,383,377,385\n208,394,383,378,385\n208,394,383,377,385\n208,394,383,378,385\n208,394,383,378,385\n208,394,383,378,385\n208,394,383,378,384\n', b'208,394,383,377,385\n208,394,383,377,385\n208,394,382,377,385\n208,393,383,377,386\n209,394,383,378,385\n207,394,383,378,385\n207,394,382,378,384\n207,394,382,378,385\n208,394,383,378,385\n209,393,383,377,385\n207,394,383,378,385\n208,393,382,377,385\n208,394,383,377,385\n208,393,383,378,385\n208,394,383,378,384\n208,393,383,377,385\n208,394,383,378,384\n209,394,383,378,384\n208,395,383,378,384\n208,394,383,377,385\n208,394,382,377,385\n208,395,383,378,384\n208,393,383,378,384\n209,394,383,377,384\n208,394,383,377,385\n208,393,383,377,384\n208,394,383,377,385\n209,394,382,377,385\n209,394,383,378,384\n209,394,382,378,385\n208,394,383,377,385\n208,394,383,378,386\n208,395,383,377,385\n208,394,383,377,385\n208,394,383,377,384\n208,395,383,377,384\n208,394,383,378,385\n208,394,383,377,385\n208,394,383,377,385\n208,394,383,378,385\n209,394,383,377,384\n209,394,382,378,385\n209,393,382,378,385\n208,394,383,377,385\n208,394,382,377,385\n208,394,383,378,384\n209,395,383,377,385\n209,393,383,377,384\n209,394,383,377,385\n208,394,383,378,385\n']___EMG_[b'10,6762.587,-187500.016,-187500.016,-187500.016,-187500.016][-1138.285,3406.003,3332.667,6826.692,-187500.016,-187500.016,-187500.016,-187500.016][-1071.028,3436.737,3398.426,7057.563,-187500.016,-187500.016,-187500.016,-187500.016][-1095.168,3415.101,3394.962,7095.740,-187500.016,-187500.016,-187500.016,-187500.016][-1076.460,3438.257,3403.366,6907.762,-187500.016,-187500.016,-187500.016,-187500.016][-1134.664,3402.941,3386.446,6856.643,-187500.016,-187500.016,-187500.016,-187500.016][-1131.199,3407.210,3372.789,6952.107,-187500.016,-187500.016,-187500.016,-187500.016][-1095.995,3407.367,3365.033,7057.071,-187500.016,-187500.016,-187500.016,-187500.016][-1064.591,3479.272,3444.985,6885.701,-187500.016,-187500.016,-187500.016,-187500.016][-1093.604,3446.237,3401.689,6861.695,-187500.016,-187500.016,-187500.016,-187500.016][-1135.334,3402.517,3376.633,6918.334,-187500.016,-187500.016,-187500.016,-187500.016][-1166.314,3351.488,3347.800,6992.050,-187500.016,-187500.016,-187500.016,-187500.016][-1104.377,3418.833,3406.942,6931.343,-187500.016,-187500.016,-187500.016,-187500.016][-1103.081,3432.624,3358.618,6854.989,-187500.016,-187500.016,-187500.016,-187500.016][-1118.258,3410.340,3377.237,6972.202,-187500.016,-187500.016,-187500.016,-187500.016][-1098.655,3414.117,3398.851,6972.313,-187500.016,-187500.016,-187500.016,-187500.016][-1108.825,3408.440,3381.059,6930.739,-187500.016,-187500.016,-187500.016,-187500.016][-1143.649,3386.468,3366.933,6887.913,-187500.016,-187500.016,-187500.016,-187500.016][-1158.223,3361.255,3318.362,6853.044,-187500.016,-187500.016,-187500.016,-187500.016][-1049.168,3469.259,3426.053,7062.950,-187500.016,-187500.016,-187500.016,-187500.016][-1097.225,3431.507,3422.678,6923.944,-187500.016,-187500.016,-187500.016,-187500.016][-1163.520,3359.668,3385.440,6846.518,-187500.016,-187500.016,-187500.016,-187500.016][-1136.698,3395.699,3377.527,6958.187,-187500.016,-187500.016,-187500.016,-187500.016][-1100.555,3427.662,3375.739,6955.103,-187500.016,-187500.016,-187500.016,-187500.016][-1143.962,3383.137,3414.273,6872.133,-187500.016,-187500.016,-187500.016,-187500.016][-1101.561,3424.265,3381.864,6859.750,-187500.016,-187500.016,-187500.016,-187500.016][-1053.237,3458.731,3331.393,6923.542,-187500.016,-187500.016,-187500.016,-187500.016][-1104.668,3412.843,3393.196,6997.348,-187500.016,-187500.016,-187500.016,-187500.016][-1175.076,3369.905,3361.054,6884.024,-187500.016,-187500.016,-187500.016,-187500.016][-1079.902,3438.235,3368.654,6905.571,-187500.016,-187500.016,-187500.016,-187500.016][-1078.516,3435.776,3402.539,6943.033,-187500.016,-187500.016,-187500.016,-187500.016][-1124.226,3397.264,3454.663,7038.005,-187500.016,-187500.016,-187500.016,-187500.016][-1201.317,3345.810,3319.971,6845.445,-187500.016,-187500.016,-187500.016,-187500.016][-1063.407,3457.055,3376.633,6853.626,-187500.016,-187500.016,-187500.016,-187500.016][-1082.964,3429.070,3396.437,6937.288,-187500.016,-187500.016,-187500.016,-187500.016][-1084.641,3432.759,3444.359,7083.491,-187500.016,-187500.016,-187500.016,-187500.016][-1098.812,3417.783,3423.080,7025.891,-187500.016,-187500.016,-187500.016,-187500.016][-1138.754,3385.730,3335.126,6845.065,-187500.016,-187500.016,-187500.016,-187500.016][-1169.220,3374.577,3337.920,6698.885,-187500.016,-187500.016,-187500.016,-187500.016][-1174.137,3363.602,3392.078,6807.447,-187500.016,-187500.016,-187500.016,-187500.016][-1042.642,3462.039,3402.136,7135.213,-187500.016,-187500.016,-187500.016,-187500.016][-1101.181,3413.804,3335.350,6969.095,-187500.016,-187500.016,-187500.016,-187500.016][-1057.461,3473.439,3406.920,6871.105,-187500.016,-187500.016,-187500.016,-187500.016][-1095.392,3439.017,3413.983,6890.618,-187500.016,-187500.016,-187500.016,-187500.016][-1191.549,3352.829,3369.995,6920.882,-187500.016,-187500.016,-187500.016,-187500.016][-1150.958,3368.989,3337.920,6915.607,-187500.016,-187500.016,-187500.016,-187500.016][-1083.925,3435.910,3354.237,6834.113,-187500.016,-187500.016,-187500.016,-187500.016][-1043.648,3490.158,3461.503,6964.334,-187500.016,-187500.016,-187500.016,-18750', b'0.016][-1138.151,3396.772,3411.345,6976.248,-187500.016,-187500.016,-187500.016,-187500.016][-1214.951,3337.495,3341.854,6855.503,-187500.016,-187500.016,-187500.016,-187500.016][-1123.801,3407.389,3338.881,6874.815,-187500.016,-187500.016,-187500.016,-187500.016][-1068.570,3438.324,3413.760,6950.409,-187500.016,-187500.016,-187500.016,-187500.016][-1073.890,3442.280,3448.606,7080.317,-187500.016,-187500.016,-187500.016,-187500.016][-1071.252,3456.496,3444.918,6929.689,-187500.016,-187500.016,-187500.016,-187500.016][-1169.466,3364.720,3346.883,6748.081,-187500.016,-187500.016,-187500.016,-187500.016][-1241.997,3300.749,3274.709,6728.411,-187500.016,-187500.016,-187500.016,-187500.016][-1019.105,3490.918,3398.717,7032.529,-187500.016,-187500.016,-187500.016,-187500.016][-1053.192,3455.043,3424.823,7030.249,-187500.016,-187500.016,-187500.016,-187500.016][-1137.011,3397.152,3369.928,6872.982,-187500.016,-187500.016,-187500.016,-187500.016][-1091.436,3441.073,3425.382,6909.639,-187500.016,-187500.016,-187500.016,-187500.016][-1139.626,3387.809,3365.323,6916.255,-187500.016,-187500.016,-187500.016,-187500.016][-1097.694,3427.506,3420.800,7019.900,-187500.016,-187500.016,-187500.016,-187500.016][-1113.251,3393.978,3371.179,6931.388,-187500.016,-187500.016,-187500.016,-187500.016][-1092.576,3428.847,3345.274,6815.091,-187500.016,-187500.016,-187500.016,-187500.016][-1119.353,3420.219,3420.174,6904.074,-187500.016,-187500.016,-187500.016,-187500.016][-1139.827,3400.840,3389.888,6911.114,-187500.016,-187500.016,-187500.016,-187500.016][-1078.002,3455.222,3404.260,6883.309,-187500.016,-187500.016,-187500.016,-187500.016][-1087.770,3435.955,3374.241,6867.350,-187500.016,-187500.016,-187500.016,-187500.016][-1130.216,3400.840,3414.542,6933.288,-187500.016,-187500.016,-187500.016,-187500.016][-1154.244,3379.852,3399.566,6894.820,-187500.016,-187500.016,-187500.016,-187500.016][-1105.294,3400.237,3411.681,6965.295,-187500.016,-187500.016,-187500.016,-187500.016][-1148.857,3378.891,3319.323,6792.337,-187500.016,-187500.016,-187500.016,-187500.016][-1185.246,3367.625,3307.946,6785.296,-187500.016,-187500.016,-187500.016,-187500.016][-995.055,3519.371,3472.835,7068.918,-187500.016,-187500.016,-187500.016,-187500.016][-1073.085,3447.868,3451.154,6977.186,-187500.016,-187500.016,-187500.016,-187500.016][-1096.286,3435.798,3410.898,6846.250,-187500.016,-187500.016,-187500.016,-187500.016][-1112.402,3424.757,3386.691,6859.638,-187500.016,-187500.016,-187500.016,-187500.016][-1101.829,3419.437,3361.993,7002.689,-187500.016,-187500.016,-187500.016,-187500.016][-1128.584,3383.406,3347.308,7034.407,-187500.016,-187500.016,-187500.016,-187500.016][-1147.427,3386.379,3333.159,6861.605,-187500.016,-187500.016,-187500.016,-187500.016][-1047.179,3465.392,3428.087,6922.424,-187500.016,-187500.016,-187500.016,-187500.016][-1100.734,3419.392,3431.797,6966.033,-187500.016,-187500.016,-187500.016,-187500.016][-1158.089,3374.107,3392.391,6882.839,-187500.016,-187500.016,-187500.016,-187500.016][-1117.073,3408.753,3389.843,6811.046,-187500.016,-187500.016,-187500.016,-187500.016][-1089.022,3439.218,3386.893,6895.245,-187500.016,-187500.016,-187500.016,-187500.016][-1085.222,3419.683,3391.609,7007.070,-187500.016,-187500.016,-187500.016,-187500.016][-1178.630,3344.938,3347.040,6851.860,-187500.016,-187500.016,-187500.016,-187500.016][-1093.358,3430.881,3362.552,6847.993,-187500.016,-187500.016,-187500.016,-187500.016][-1057.617,3474.310,3441.677,6911.249,-187500.016,-187500.016,-187500.016,-187500.016][-1144.297,3389.463,3370.576,6889.791,-187500.016,-187500.016,-187500.016,-187500.016][-1156.010,3381.796,3431.060,6919.742,-187500.016,-187500.016,-187500.016,-187500.016][-1080.953,3433.183,3388.614,6906.644,-187500.016,-187500.016,-187500.016,-187500.016][-1047.783,3463.582,3350.973,6891.221,-187500.016,-187500.016,-187500.016,-187500.016][-1074.806,3450.349,3422.722,6896.809,-187500.016,-187500.016,-187500.016,-187500.016][-1123.220,3400.773,3407.054,6919.608,-187500.016,-187500.016,-187500.016,-187500.016][-1160.301,3354.460,3320.106,6904.252,-187500.016']
